# diffractive D0 cross section, Pb target, KniehlKramer fragmentation, An0n channel
# dipole samples : data/Pb/mve/glauber_mve_<b>
# pD0 sweep      : 0.2 to 12.0 GeV, step 0.5
# fixed rapidity y : 2
# ============================================================
# b  pD0  dsigma_dyd2pD0
0  0.7  0.448653
0  0.2  0.505461
0  1.2  0.168936
0  2.2  0.0188966
0  1.7  0.0552234
0  2.7  0.00737816
0  3.2  0.00303885
0  3.7  0.00139198
0  4.2  0.00068545
0  4.7  0.000348726
0  5.2  0.000189416
0  5.7  0.000104657
0  6.7  3.57693e-05
0  6.2  6.16178e-05
0  7.2  2.2181e-05
0  7.7  1.40377e-05
0  8.2  8.88582e-06
0  8.7  5.78639e-06
0  9.2  3.86385e-06
0  9.7  2.54665e-06
0  10.2  1.72631e-06
0  10.7  1.19769e-06
0  11.2  8.20145e-07
10  0.2  0.498103
0  11.7  5.76829e-07
10  0.7  0.429297
10  1.2  0.162951
10  1.7  0.0526147
10  2.2  0.0184678
10  2.7  0.00699273
10  3.2  0.0030584
10  4.2  0.000644967
10  3.7  0.00131497
10  4.7  0.00033998
10  5.2  0.000179339
10  6.2  5.85056e-05
10  5.7  0.000100287
10  6.7  3.47857e-05
10  7.2  2.10438e-05
10  7.7  1.3025e-05
10  8.2  8.46732e-06
10  8.7  5.4725e-06
10  9.7  2.35268e-06
10  9.2  3.64718e-06
10  10.2  1.65859e-06
10  10.7  1.1223e-06
10  11.2  7.71193e-07
12  0.2  0.497794
10  11.7  5.46484e-07
12  0.7  0.429269
12  1.2  0.159679
12  1.7  0.0524334
12  2.2  0.0179259
12  2.7  0.0069165
12  3.2  0.00288482
12  3.7  0.00130449
12  4.2  0.000635843
12  4.7  0.000326154
12  5.2  0.00017603
12  5.7  9.77155e-05
12  6.2  5.5698e-05
12  6.7  3.34619e-05
12  7.7  1.27813e-05
12  7.2  2.0957e-05
12  8.2  8.23946e-06
12  8.7  5.37139e-06
12  9.2  3.40363e-06
12  9.7  2.36308e-06
12  10.2  1.61136e-06
12  10.7  1.0965e-06
12  11.2  7.41341e-07
12  11.7  5.33039e-07
14  0.2  0.488799
14  1.2  0.155525
14  0.7  0.425094
14  1.7  0.0498307
14  2.2  0.0173184
14  2.7  0.0066528
14  3.7  0.00125802
14  3.2  0.00277959
14  4.2  0.000621929
14  5.2  0.000168704
14  4.7  0.000318139
14  5.7  9.50059e-05
14  6.2  5.4487e-05
14  6.7  3.25197e-05
14  7.2  1.98002e-05
14  7.7  1.25839e-05
14  8.2  7.89065e-06
14  8.7  5.2461e-06
14  9.2  3.44235e-06
14  9.7  2.32853e-06
14  10.2  1.56559e-06
14  10.7  1.06916e-06
14  11.2  7.34313e-07
16  0.2  0.49156
14  11.7  5.28233e-07
16  0.7  0.407411
16  1.2  0.15188
16  1.7  0.0499614
16  2.2  0.0169641
16  2.7  0.0063645
16  3.2  0.00266475
16  3.7  0.00121272
16  4.2  0.000596753
16  4.7  0.0003085
16  5.2  0.000164735
16  5.7  9.02447e-05
16  6.2  5.271e-05
16  6.7  3.15026e-05
16  7.2  1.91823e-05
16  7.7  1.20626e-05
16  8.2  7.48259e-06
16  8.7  5.07684e-06
16  9.2  3.34826e-06
16  9.7  2.19913e-06
16  10.2  1.45936e-06
16  10.7  1.0287e-06
16  11.2  6.93309e-07
18  0.2  0.48536
16  11.7  4.95047e-07
18  0.7  0.403469
18  1.7  0.0467826
18  1.2  0.146642
18  2.7  0.00612176
18  2.2  0.0160706
18  3.2  0.00264322
18  3.7  0.00116561
18  4.2  0.000564929
18  4.7  0.000296166
18  5.2  0.000157048
18  5.7  8.80457e-05
18  6.2  5.03414e-05
18  6.7  3.01333e-05
18  7.2  1.84047e-05
18  7.7  1.15276e-05
18  8.2  7.37095e-06
18  8.7  4.8255e-06
18  9.2  3.16725e-06
18  9.7  2.12324e-06
18  10.2  1.36161e-06
18  10.7  9.65149e-07
18  11.2  6.83649e-07
18  11.7  4.77868e-07
2  0.2  0.503929
2  0.7  0.445734
2  1.2  0.169466
2  1.7  0.0553938
2  2.2  0.0190525
2  2.7  0.00728625
2  3.2  0.00305897
2  3.7  0.00137515
2  4.2  0.000673646
2  4.7  0.000352706
2  5.2  0.000190263
2  5.7  0.000104342
2  6.2  6.12524e-05
2  6.7  3.6159e-05
2  7.2  2.20602e-05
2  7.7  1.389e-05
2  8.2  8.83577e-06
2  8.7  5.79273e-06
2  9.7  2.55388e-06
2  9.2  3.82492e-06
2  10.2  1.70437e-06
2  10.7  1.17491e-06
2  11.2  7.96571e-07
2  11.7  5.72991e-07
20  0.2  0.471467
20  0.7  0.389514
20  1.2  0.141089
20  2.2  0.0153665
20  1.7  0.0438945
20  2.7  0.00574618
20  3.2  0.00243108
20  3.7  0.00108764
20  4.2  0.000528567
20  4.7  0.000279693
20  5.2  0.000148414
20  5.7  8.10179e-05
20  6.2  4.72712e-05
20  6.7  2.84646e-05
20  7.2  1.72985e-05
20  7.7  1.07682e-05
20  8.7  4.45902e-06
20  8.2  6.95729e-06
20  9.2  3.0024e-06
20  9.7  1.95275e-06
20  10.2  1.34867e-06
20  11.2  6.23012e-07
20  10.7  9.16366e-07
20  11.7  4.42846e-07
22  0.2  0.454519
22  1.2  0.129922
22  0.7  0.370479
22  1.7  0.0421487
22  2.2  0.0141783
22  2.7  0.00568483
22  3.2  0.00224011
22  3.7  0.0010219
22  4.2  0.000503667
22  4.7  0.000252583
22  5.7  7.58069e-05
22  5.2  0.000138265
22  6.2  4.47029e-05
22  7.2  1.61791e-05
22  6.7  2.6419e-05
22  7.7  1.00112e-05
22  8.2  6.43607e-06
22  8.7  4.09579e-06
22  9.2  2.7634e-06
22  9.7  1.7802e-06
22  10.2  1.24379e-06
22  11.2  5.54382e-07
22  10.7  8.63805e-07
24  0.2  0.439203
22  11.7  4.10075e-07
24  0.7  0.348774
24  1.2  0.119762
24  1.7  0.0381182
24  2.2  0.0129532
24  2.7  0.0048562
24  3.2  0.00207501
24  3.7  0.000952969
24  4.2  0.000454634
24  4.7  0.000233725
24  5.2  0.000124447
24  6.2  4.07564e-05
24  5.7  6.9227e-05
24  6.7  2.45144e-05
24  7.2  1.50863e-05
24  7.7  9.12356e-06
24  8.2  5.86585e-06
24  8.7  3.79133e-06
24  9.7  1.65287e-06
24  9.2  2.51594e-06
24  10.2  1.1192e-06
24  10.7  7.84765e-07
26  0.2  0.423691
24  11.7  3.78463e-07
24  11.2  5.36184e-07
26  0.7  0.316121
26  1.2  0.109556
26  1.7  0.0341577
26  2.2  0.0115457
26  2.7  0.0043275
26  3.2  0.00182417
26  3.7  0.000821657
26  4.2  0.000394218
26  4.7  0.000201693
26  5.2  0.000111177
26  5.7  6.11876e-05
26  6.2  3.5747e-05
26  6.7  2.09442e-05
26  7.2  1.27662e-05
26  8.2  5.12311e-06
26  7.7  8.02478e-06
26  8.7  3.41185e-06
26  9.2  2.19841e-06
26  9.7  1.46577e-06
26  10.2  1.00021e-06
26  10.7  6.83825e-07
26  11.7  3.17301e-07
26  11.2  4.732e-07
28  0.2  0.391212
28  1.2  0.0923537
28  0.7  0.283621
28  1.7  0.0291188
28  2.2  0.00964089
28  2.7  0.00372974
28  3.7  0.000684228
28  3.2  0.00156104
28  4.2  0.000336013
28  4.7  0.000165224
28  5.7  4.99749e-05
28  5.2  9.21308e-05
28  6.2  2.97185e-05
28  6.7  1.73918e-05
28  7.2  1.07709e-05
28  7.7  6.88187e-06
28  8.2  4.32302e-06
28  8.7  2.80744e-06
28  9.7  1.23343e-06
28  10.2  8.2527e-07
28  9.2  1.88059e-06
28  10.7  5.70359e-07
28  11.7  2.80182e-07
28  11.2  3.9927e-07
30  0.2  0.346093
30  0.7  0.232949
30  1.2  0.075501
30  2.2  0.00769011
30  1.7  0.0236148
30  2.7  0.00292416
30  3.2  0.00120293
30  3.7  0.000555095
30  4.2  0.000255939
30  4.7  0.000136042
30  5.2  7.19155e-05
30  6.2  2.31348e-05
30  5.7  4.03583e-05
30  6.7  1.39079e-05
30  7.2  8.62469e-06
30  7.7  5.48012e-06
30  8.2  3.43176e-06
30  8.7  2.215e-06
30  9.2  1.45964e-06
30  9.7  9.63743e-07
30  10.2  6.53325e-07
30  10.7  4.54859e-07
30  11.2  3.13704e-07
30  11.7  2.18374e-07
32  0.2  0.296064
32  0.7  0.181118
32  1.2  0.0551821
32  1.7  0.0163154
32  2.2  0.0054327
32  2.7  0.00215098
32  3.7  0.000387193
32  3.2  0.000856702
32  4.7  9.76158e-05
32  4.2  0.000191139
32  5.2  5.26158e-05
32  5.7  2.9058e-05
32  6.2  1.62014e-05
32  6.7  1.02358e-05
32  7.2  6.19112e-06
32  7.7  3.76695e-06
32  8.2  2.45703e-06
32  8.7  1.53849e-06
32  9.2  1.04614e-06
32  9.7  6.71782e-07
32  10.7  3.18858e-07
32  10.2  4.72912e-07
32  11.2  2.23635e-07
32  11.7  1.54801e-07
4  0.2  0.511817
4  0.7  0.445887
4  1.2  0.168536
4  1.7  0.0549289
4  2.2  0.0190588
4  2.7  0.0073314
4  3.2  0.00313651
4  3.7  0.00139383
4  4.2  0.000672671
4  4.7  0.000348722
4  5.2  0.000189088
4  5.7  0.000104894
4  6.2  6.03254e-05
4  7.2  2.20079e-05
4  6.7  3.56047e-05
4  7.7  1.37552e-05
4  8.2  8.60299e-06
4  8.7  5.77462e-06
4  9.2  3.79828e-06
4  9.7  2.55697e-06
4  10.2  1.71667e-06
4  10.7  1.17531e-06
4  11.7  5.7059e-07
4  11.2  8.188e-07
6  0.7  0.44199
6  0.2  0.50804
6  1.2  0.164108
6  1.7  0.0552016
6  2.2  0.0187802
6  2.7  0.00750532
6  3.7  0.0013673
6  3.2  0.00312762
6  4.2  0.000680684
6  4.7  0.000357539
6  5.2  0.000179874
6  6.7  3.61526e-05
6  5.7  0.000103413
6  6.2  5.83867e-05
6  7.2  2.19668e-05
6  7.7  1.37592e-05
6  8.2  8.73661e-06
6  8.7  5.76339e-06
6  9.2  3.69978e-06
6  9.7  2.51769e-06
6  10.2  1.70367e-06
6  10.7  1.16049e-06
6  11.2  8.04099e-07
8  0.2  0.500651
6  11.7  5.63331e-07
8  0.7  0.439573
8  1.2  0.164834
8  1.7  0.0545759
8  2.2  0.0186961
8  2.7  0.00722255
8  3.2  0.0029537
8  3.7  0.00133604
8  4.2  0.000651454
8  4.7  0.000341805
8  5.7  0.000102643
8  5.2  0.000184231
8  6.2  5.59806e-05
8  6.7  3.55077e-05
8  7.2  2.15765e-05
8  7.7  1.36354e-05
8  8.2  8.58622e-06
8  8.7  5.62798e-06
8  9.2  3.69302e-06
8  9.7  2.45397e-06
8  10.7  1.16979e-06
8  10.2  1.66955e-06
8  11.2  7.97586e-07
8  11.7  5.53546e-07
