# diffractive D0 cross section, Pb target, BCFY fragmentation, An0n channel
# dipole samples : data/Pb/mve/glauber_mve_<b>
# pD0 sweep      : 0.2 to 12.0 GeV, step 0.5
# fixed rapidity y : 1.5
# ============================================================
# b  pD0  dsigma_dyd2pD0
0  0.2  0.484825
0  0.7  0.973572
0  1.7  0.243476
0  2.2  0.0982281
0  1.2  0.578791
0  3.7  0.00986994
0  3.2  0.0195999
0  2.7  0.0426544
0  4.2  0.00520157
0  5.2  0.00163012
0  4.7  0.00272941
0  5.7  0.000970401
0  6.7  0.000372625
0  6.2  0.000606316
0  7.2  0.000247247
0  7.7  0.000163725
0  8.2  0.000111455
0  9.2  5.37218e-05
0  8.7  7.66603e-05
0  10.2  2.76611e-05
0  9.7  3.79962e-05
0  10.7  1.97432e-05
10  0.2  0.485801
0  11.7  1.04916e-05
10  0.7  0.946831
0  11.2  1.43705e-05
10  1.2  0.561384
10  2.2  0.0940185
10  3.2  0.0189169
10  3.7  0.00922384
10  1.7  0.235687
10  2.7  0.0408623
10  4.7  0.00270338
10  4.2  0.00492266
10  5.7  0.000921251
10  5.2  0.00155428
10  6.2  0.000555765
10  7.2  0.000236177
10  7.7  0.000154588
10  6.7  0.000358917
10  9.7  3.5598e-05
10  8.2  0.000104638
10  8.7  7.06448e-05
10  9.2  5.13623e-05
10  10.2  2.64297e-05
10  10.7  1.86318e-05
12  0.2  0.482572
10  11.7  1.03314e-05
10  11.2  1.39181e-05
12  0.7  0.947984
12  1.2  0.555062
12  1.7  0.231795
12  2.2  0.0922837
12  3.2  0.0182688
12  2.7  0.0393721
12  4.2  0.00472861
12  4.7  0.00263532
12  5.2  0.0014966
12  3.7  0.00903307
12  5.7  0.000904808
12  7.2  0.000228879
12  6.2  0.00055852
12  6.7  0.000350461
12  8.2  0.000103888
12  9.2  4.59712e-05
12  7.7  0.000151561
12  8.7  7.18095e-05
12  11.2  1.32727e-05
12  10.2  2.56128e-05
12  9.7  3.57961e-05
12  10.7  1.87504e-05
14  0.2  0.480975
14  0.7  0.923768
12  11.7  9.88498e-06
14  1.7  0.221045
14  1.2  0.54009
14  3.2  0.018258
14  2.2  0.0890826
14  2.7  0.038662
14  3.7  0.00862017
14  4.2  0.0044699
14  4.7  0.00251369
14  5.2  0.00145269
14  6.2  0.00053894
14  6.7  0.000341412
14  5.7  0.000873913
14  7.2  0.000224103
14  8.2  0.000100252
14  7.7  0.000146689
14  8.7  7.00387e-05
14  9.7  3.45286e-05
14  9.2  4.86673e-05
14  10.2  2.48533e-05
14  11.2  1.31909e-05
14  10.7  1.80728e-05
16  1.2  0.530648
14  11.7  9.69694e-06
16  0.2  0.474479
16  0.7  0.919949
16  1.7  0.21559
16  2.2  0.0868611
16  3.7  0.00854238
16  3.2  0.0168777
16  4.2  0.00441247
16  2.7  0.0370375
16  4.7  0.00241934
16  5.7  0.000822012
16  5.2  0.0014128
16  7.2  0.000215671
16  6.2  0.000514705
16  6.7  0.000327917
16  7.7  0.000141394
16  8.2  9.76066e-05
16  9.2  4.7158e-05
16  8.7  6.7734e-05
16  9.7  3.31614e-05
16  11.7  9.45608e-06
16  10.2  2.40841e-05
16  11.2  1.26312e-05
18  0.2  0.467641
16  10.7  1.72351e-05
18  0.7  0.897582
18  1.2  0.506537
18  2.2  0.0831477
18  1.7  0.208528
18  2.7  0.0352412
18  3.2  0.0163922
18  4.2  0.00413833
18  3.7  0.00796332
18  5.7  0.000800495
18  5.2  0.00134215
18  4.7  0.00231193
18  6.2  0.000502528
18  8.2  9.4553e-05
18  8.7  6.33562e-05
18  7.7  0.000138583
18  6.7  0.000314323
18  7.2  0.000204689
18  9.2  4.45445e-05
18  10.2  2.28495e-05
18  11.2  1.20889e-05
18  9.7  3.18854e-05
18  10.7  1.67276e-05
2  0.7  0.968462
2  0.2  0.485201
2  1.2  0.576852
18  11.7  9.00758e-06
2  2.2  0.0978912
2  1.7  0.243686
2  3.7  0.00970991
2  2.7  0.0422742
2  3.2  0.0195731
2  4.2  0.00514492
2  4.7  0.00283698
2  5.7  0.000958992
2  5.2  0.00160176
2  7.2  0.000244331
2  6.2  0.000599292
2  6.7  0.000377907
2  7.7  0.000160686
2  8.2  0.00011234
2  9.2  5.30004e-05
2  8.7  7.63317e-05
2  10.2  2.7456e-05
2  10.7  1.96375e-05
2  9.7  3.8179e-05
2  11.2  1.41828e-05
20  0.2  0.456113
20  0.7  0.875416
2  11.7  1.0885e-05
20  1.7  0.199293
20  1.2  0.491345
20  2.7  0.0334707
20  2.2  0.0782653
20  4.2  0.00402561
20  3.2  0.0156239
20  3.7  0.00748099
20  4.7  0.00219696
20  5.2  0.0012684
20  5.7  0.000757945
20  6.2  0.000462705
20  7.7  0.000128214
20  6.7  0.00029454
20  7.2  0.000193376
20  8.7  6.04841e-05
20  9.2  4.31667e-05
20  8.2  8.78741e-05
20  10.2  2.08319e-05
20  9.7  3.00615e-05
20  10.7  1.55885e-05
22  0.2  0.448886
20  11.7  8.29158e-06
20  11.2  1.15823e-05
22  0.7  0.84525
22  1.2  0.462158
22  1.7  0.187844
22  2.7  0.0315204
22  2.2  0.0738362
22  3.7  0.00693887
22  3.2  0.0140188
22  4.2  0.00366511
22  4.7  0.00205559
22  6.2  0.000439561
22  5.2  0.00118184
22  5.7  0.000699729
22  6.7  0.000281033
22  7.2  0.000181194
22  8.2  8.16691e-05
22  8.7  5.69428e-05
22  7.7  0.000119597
22  9.2  3.93623e-05
22  10.2  2.02072e-05
22  9.7  2.82201e-05
22  10.7  1.44667e-05
22  11.7  7.82405e-06
24  0.2  0.432662
22  11.2  1.05945e-05
24  0.7  0.804873
24  1.2  0.428568
24  2.2  0.0664157
24  1.7  0.16996
24  2.7  0.028896
24  3.2  0.0128845
24  3.7  0.00627773
24  4.2  0.00343402
24  5.2  0.0010785
24  4.7  0.00186742
24  5.7  0.000637908
24  7.2  0.00016424
24  6.2  0.000391137
24  6.7  0.000255591
24  7.7  0.000109733
24  8.2  7.33051e-05
24  9.2  3.52247e-05
24  10.2  1.73325e-05
24  9.7  2.46431e-05
24  8.7  5.17617e-05
24  10.7  1.31751e-05
24  11.7  6.8594e-06
24  11.2  9.70187e-06
26  0.2  0.4198
26  0.7  0.745934
26  1.7  0.148662
26  1.2  0.38718
26  2.7  0.0247796
26  3.2  0.0116318
26  2.2  0.0590487
26  4.2  0.00288077
26  3.7  0.00563725
26  4.7  0.00161995
26  6.2  0.000345201
26  5.2  0.000932942
26  5.7  0.00056628
26  7.2  0.000144384
26  6.7  0.000221831
26  8.2  6.53961e-05
26  7.7  9.38694e-05
26  9.2  3.13841e-05
26  8.7  4.50188e-05
26  10.7  1.10058e-05
26  9.7  2.24544e-05
26  10.2  1.62085e-05
28  0.2  0.397146
26  11.2  8.39738e-06
26  11.7  6.34605e-06
28  0.7  0.674298
28  1.2  0.328486
28  2.2  0.0510375
28  1.7  0.127685
28  3.2  0.00961268
28  2.7  0.0208362
28  3.7  0.00478559
28  4.2  0.00243485
28  4.7  0.00136493
28  5.2  0.000793517
28  6.2  0.000287908
28  5.7  0.000479118
28  6.7  0.000187439
28  7.2  0.000123547
28  8.7  3.82702e-05
28  8.2  5.44392e-05
28  7.7  8.06735e-05
28  9.2  2.61786e-05
28  10.7  9.60016e-06
28  9.7  1.85922e-05
28  11.2  7.01121e-06
30  0.2  0.370809
28  10.2  1.32401e-05
30  0.7  0.570278
28  11.7  5.19777e-06
30  2.7  0.0168551
30  1.7  0.101435
30  1.2  0.268961
30  3.2  0.00769362
30  2.2  0.0397941
30  4.7  0.00108026
30  3.7  0.00373149
30  5.2  0.000622999
30  4.2  0.0019456
30  5.7  0.000373454
30  6.7  0.000144937
30  7.2  9.13466e-05
30  6.2  0.000229601
30  7.7  6.31246e-05
30  8.2  4.29416e-05
30  8.7  2.89888e-05
30  10.2  1.05392e-05
30  11.2  5.50201e-06
30  9.7  1.46645e-05
30  9.2  2.04734e-05
30  10.7  7.52041e-06
32  0.2  0.321895
32  1.7  0.0760072
32  1.2  0.196135
32  0.7  0.455511
30  11.7  4.06798e-06
32  2.2  0.0282911
32  2.7  0.0120903
32  4.2  0.00141528
32  3.2  0.00542462
32  3.7  0.00267155
32  4.7  0.000787714
32  6.2  0.000162063
32  5.7  0.000258787
32  5.2  0.000443338
32  7.2  6.72544e-05
32  6.7  0.000105808
32  7.7  4.54877e-05
32  8.7  2.11231e-05
32  9.2  1.47552e-05
32  8.2  3.08579e-05
32  9.7  1.008e-05
32  10.2  7.38364e-06
32  10.7  5.38609e-06
32  11.7  2.99525e-06
4  0.2  0.478905
4  0.7  0.97293
32  11.2  3.94771e-06
4  2.2  0.0972669
4  1.2  0.579294
4  1.7  0.243827
4  2.7  0.0423692
4  3.7  0.0096901
4  3.2  0.0194824
4  5.7  0.000958006
4  4.2  0.0049287
4  4.7  0.00274233
4  5.2  0.00160277
4  6.7  0.000375728
4  6.2  0.000600709
4  7.7  0.000162247
4  7.2  0.000245884
4  9.7  3.8846e-05
4  8.2  0.000109881
4  9.2  5.32478e-05
4  8.7  7.53452e-05
4  10.7  1.95523e-05
6  0.2  0.484982
4  11.2  1.47071e-05
4  10.2  2.74819e-05
6  0.7  0.967592
4  11.7  1.09958e-05
6  1.7  0.243331
6  1.2  0.571288
6  3.2  0.0195111
6  2.2  0.0981464
6  3.7  0.00952383
6  4.2  0.00513533
6  2.7  0.0414303
6  4.7  0.00277441
6  6.2  0.000583296
6  5.2  0.00156133
6  5.7  0.000958771
6  6.7  0.000372303
6  7.7  0.000159075
6  7.2  0.000242861
6  8.7  7.53599e-05
6  9.2  5.24776e-05
6  8.2  0.000108846
6  10.2  2.74371e-05
6  10.7  1.92687e-05
6  9.7  3.76205e-05
8  0.2  0.488016
6  11.7  1.05761e-05
6  11.2  1.45206e-05
8  0.7  0.961414
8  1.2  0.569146
8  2.2  0.0960754
8  1.7  0.237766
8  2.7  0.041006
8  3.7  0.00938796
8  3.2  0.0188975
8  4.2  0.00487631
8  5.7  0.000930405
8  4.7  0.00268201
8  5.2  0.00156264
8  7.7  0.000155845
8  7.2  0.000240776
8  8.7  7.31206e-05
8  6.2  0.000580806
8  9.2  4.89522e-05
8  6.7  0.000367318
8  8.2  0.000103415
8  9.7  3.71911e-05
8  11.2  1.42887e-05
8  10.2  2.67055e-05
8  10.7  1.94841e-05
8  11.7  1.04476e-05
0  0.3  0.658141
0  0.4  0.812476
0  0.5  0.934661
0  0.8  0.930106
0  0.6  0.978937
0  0.9  0.863478
0  1.0  0.763642
0  1.1  0.670996
0  1.3  0.495217
0  1.4  0.415392
0  1.5  0.348921
0  1.6  0.294134
0  1.8  0.202875
0  1.9  0.167762
0  2.0  0.141171
10  0.3  0.658299
10  0.4  0.806279
10  0.5  0.901221
10  0.8  0.916656
10  0.9  0.83628
10  0.6  0.953487
10  1.1  0.64356
10  1.0  0.745182
10  1.3  0.475596
10  1.4  0.404869
10  1.5  0.338873
10  1.6  0.276342
10  1.8  0.19499
10  1.9  0.161534
10  2.0  0.135453
12  0.3  0.638061
12  0.5  0.895043
12  0.4  0.795815
12  0.8  0.895847
12  0.6  0.950482
12  0.9  0.81761
12  1.0  0.739561
12  1.1  0.646594
12  1.4  0.39365
12  1.3  0.472182
12  1.5  0.330429
12  1.8  0.190316
12  1.6  0.275865
12  2.0  0.131421
12  1.9  0.159772
14  0.3  0.636396
14  0.4  0.794624
14  0.5  0.891407
14  0.8  0.881352
14  0.6  0.935169
14  0.9  0.806546
14  1.0  0.72448
14  1.1  0.632391
14  1.3  0.457526
14  1.4  0.384476
14  1.6  0.273269
14  1.5  0.322658
14  1.8  0.183497
14  1.9  0.154826
14  2.0  0.128897
16  0.4  0.792261
16  0.3  0.62296
16  0.5  0.877516
16  0.6  0.917674
16  0.8  0.857552
16  1.0  0.70337
16  0.9  0.79433
16  1.1  0.622316
16  1.3  0.446483
16  1.4  0.371496
16  1.5  0.314213
16  1.6  0.259892
16  1.8  0.181277
16  1.9  0.150639
16  2.0  0.123997
18  0.4  0.777288
18  0.3  0.628708
18  0.5  0.867492
18  0.6  0.91044
18  0.8  0.829524
18  1.0  0.679833
18  0.9  0.772401
18  1.1  0.591636
18  1.3  0.429545
18  1.4  0.364767
18  1.5  0.299444
18  1.6  0.250682
18  1.8  0.171915
18  1.9  0.142851
18  2.0  0.119483
2  0.3  0.658182
2  0.4  0.812857
2  0.5  0.924275
2  0.6  0.971789
2  0.8  0.944155
2  0.9  0.855901
2  1.0  0.765106
2  1.1  0.674227
2  1.3  0.49727
2  1.4  0.415515
2  1.6  0.290122
2  1.5  0.349446
2  1.8  0.204115
2  1.9  0.169223
2  2.0  0.141594
20  0.3  0.619355
20  0.5  0.840929
20  0.4  0.75812
20  0.8  0.81499
20  0.6  0.890286
20  0.9  0.740915
20  1.1  0.5761
20  1.0  0.661746
20  1.4  0.345784
20  1.3  0.410223
20  1.5  0.287136
20  1.6  0.238957
20  1.9  0.135038
20  1.8  0.164143
20  2.0  0.111964
22  0.3  0.591526
22  0.4  0.74397
22  0.5  0.83783
22  0.6  0.861537
22  0.8  0.775415
22  0.9  0.712919
22  1.0  0.629762
22  1.1  0.542295
22  1.3  0.387659
22  1.4  0.324965
22  1.5  0.266386
22  1.6  0.221918
22  1.8  0.152676
22  1.9  0.126883
22  2.0  0.10529
24  0.3  0.589507
24  0.5  0.801647
24  0.4  0.716122
24  0.6  0.824811
24  0.8  0.743946
24  1.0  0.590037
24  0.9  0.665072
24  1.3  0.357396
24  1.1  0.509346
24  1.4  0.298699
24  1.5  0.250576
24  1.6  0.206725
24  1.8  0.140396
24  1.9  0.115715
24  2.0  0.0958053
26  0.3  0.569271
26  0.5  0.762809
26  0.4  0.696763
26  0.8  0.691623
26  0.6  0.774
26  0.9  0.614607
26  1.0  0.545123
26  1.1  0.456631
26  1.4  0.270222
26  1.3  0.323399
26  1.6  0.184241
26  1.5  0.22329
26  1.8  0.125801
26  1.9  0.102886
26  2.0  0.0860527
28  0.3  0.527143
28  0.4  0.647006
28  0.5  0.701261
28  0.6  0.710662
28  0.8  0.610757
28  1.0  0.466372
28  0.9  0.545499
28  1.1  0.402971
28  1.3  0.278191
28  1.5  0.189283
28  1.4  0.228404
28  1.6  0.156076
28  1.8  0.105822
28  1.9  0.0869655
28  2.0  0.0723276
30  0.3  0.490932
30  0.5  0.622555
30  0.4  0.581762
30  0.8  0.51975
30  0.6  0.617696
30  0.9  0.451732
30  1.0  0.379462
30  1.3  0.224652
30  1.1  0.322728
30  1.4  0.183274
30  1.5  0.149287
30  1.6  0.123526
30  1.8  0.0839115
30  1.9  0.0682349
30  2.0  0.05709
32  0.3  0.423142
32  0.4  0.493748
32  0.5  0.514639
32  0.8  0.393337
32  0.6  0.493936
32  0.9  0.341596
32  1.0  0.289808
32  1.1  0.244365
32  1.3  0.161804
32  1.4  0.132074
32  1.5  0.111043
32  1.6  0.0919402
32  1.8  0.062229
32  1.9  0.0497811
32  2.0  0.0411916
4  0.3  0.662128
4  0.4  0.813963
4  0.5  0.916808
4  0.6  0.966807
4  0.8  0.930848
4  0.9  0.852085
4  1.0  0.766503
4  1.1  0.678007
4  1.4  0.415378
4  1.3  0.489991
4  1.5  0.349984
4  1.6  0.287318
4  1.8  0.201328
4  1.9  0.167649
4  2.0  0.13965
6  0.3  0.651971
6  0.4  0.817963
6  0.5  0.906528
6  0.6  0.969752
6  0.9  0.846594
6  0.8  0.910346
6  1.0  0.764661
6  1.1  0.666628
6  1.3  0.493149
6  1.4  0.415645
6  1.5  0.342232
6  1.6  0.286889
6  1.8  0.200522
6  1.9  0.166415
6  2.0  0.138493
