# diffractive D0 cross section, Pb target, KniehlKramer fragmentation, An0n channel
# dipole samples : data/Pb/mve/glauber_mve_<b>
# pD0 sweep      : 0.2 to 12.0 GeV, step 0.5
# fixed rapidity y : 3.5
# ============================================================
# b  pD0  dsigma_dyd2pD0
0  0.7  0.0318438
0  0.2  0.0451734
0  1.2  0.0087613
0  1.7  0.00199413
0  2.7  0.000113706
0  2.2  0.000458838
0  3.2  3.11704e-05
0  4.2  3.10958e-06
0  3.7  9.86672e-06
0  5.2  3.82831e-07
0  4.7  1.06423e-06
0  5.7  1.44497e-07
0  6.2  5.45907e-08
0  7.2  9.10751e-09
0  6.7  2.20822e-08
0  7.7  3.83842e-09
0  8.2  1.63353e-09
0  8.7  7.14852e-10
0  9.2  3.02424e-10
0  10.2  6.52235e-11
0  9.7  1.43164e-10
0  11.2  1.43459e-11
0  10.7  3.04484e-11
0  11.7  6.7482e-12
10  0.2  0.0446778
10  1.2  0.00844095
10  0.7  0.0314176
10  1.7  0.00186773
10  2.7  0.000111002
10  2.2  0.000432726
10  3.7  9.19193e-06
10  3.2  3.02616e-05
10  4.2  2.86501e-06
10  4.7  1.02359e-06
10  5.2  3.56311e-07
10  5.7  1.31395e-07
10  6.2  5.12626e-08
10  7.2  8.59115e-09
10  6.7  2.09465e-08
10  7.7  3.62034e-09
10  8.7  6.73124e-10
10  8.2  1.5552e-09
10  9.2  2.901e-10
10  9.7  1.36314e-10
10  10.2  6.28141e-11
10  11.2  1.33242e-11
10  10.7  2.89813e-11
10  11.7  6.41081e-12
12  0.2  0.0445007
12  0.7  0.0311275
12  1.2  0.00840643
12  2.2  0.000437367
12  1.7  0.00180994
12  2.7  0.000107997
12  3.2  3.02563e-05
12  3.7  9.20194e-06
12  4.2  2.8584e-06
12  4.7  1.00912e-06
12  5.2  3.38386e-07
12  5.7  1.32543e-07
12  6.2  5.1226e-08
12  6.7  1.96727e-08
12  7.7  3.54827e-09
12  7.2  8.41345e-09
12  8.7  6.47307e-10
12  8.2  1.52042e-09
12  9.2  2.94661e-10
12  9.7  1.26187e-10
12  10.2  6.09271e-11
12  10.7  2.82606e-11
12  11.2  1.3291e-11
12  11.7  6.06726e-12
14  0.2  0.0439455
14  0.7  0.0302085
14  1.2  0.00802014
14  1.7  0.00178441
14  2.2  0.000414529
14  2.7  0.000104805
14  3.2  2.89241e-05
14  3.7  8.88473e-06
14  4.2  2.82107e-06
14  4.7  9.37442e-07
14  5.2  3.37299e-07
14  5.7  1.24439e-07
14  6.2  4.8248e-08
14  6.7  1.96273e-08
14  7.7  3.20746e-09
14  7.2  8.26517e-09
14  8.2  1.42744e-09
14  8.7  6.26545e-10
14  9.7  1.29091e-10
14  9.2  2.83851e-10
14  10.2  5.84325e-11
14  10.7  2.7548e-11
14  11.2  1.29739e-11
14  11.7  6.1704e-12
16  0.2  0.0436355
16  0.7  0.0298989
16  1.2  0.00781889
16  1.7  0.00172221
16  2.7  0.000101188
16  2.2  0.000401792
16  3.2  2.82613e-05
16  3.7  8.6758e-06
16  4.2  2.73599e-06
16  5.2  3.21825e-07
16  4.7  9.37588e-07
16  5.7  1.24938e-07
16  6.2  4.86599e-08
16  7.2  7.88105e-09
16  6.7  1.93718e-08
16  7.7  3.2697e-09
16  8.7  6.197e-10
16  8.2  1.40643e-09
16  9.2  2.64056e-10
16  9.7  1.28999e-10
16  10.2  5.8428e-11
16  10.7  2.6057e-11
16  11.2  1.29704e-11
16  11.7  6.0818e-12
18  0.2  0.043005
18  0.7  0.0291065
18  1.2  0.00753153
18  2.2  0.000377153
18  1.7  0.00165318
18  2.7  9.69972e-05
18  3.2  2.70201e-05
18  3.7  7.98166e-06
18  4.2  2.60613e-06
18  5.2  3.08131e-07
18  4.7  9.03105e-07
18  5.7  1.15118e-07
18  6.2  4.64094e-08
18  6.7  1.81852e-08
18  7.7  3.05638e-09
18  7.2  7.64124e-09
18  8.2  1.29185e-09
18  8.7  5.93316e-10
18  9.2  2.68196e-10
18  9.7  1.19441e-10
18  10.2  5.43067e-11
18  10.7  2.46691e-11
18  11.2  1.18876e-11
18  11.7  5.53957e-12
2  0.2  0.0452295
2  1.2  0.00869992
2  0.7  0.0319978
2  1.7  0.00194556
2  2.7  0.000114855
2  2.2  0.000456084
2  3.2  3.16838e-05
2  3.7  9.76684e-06
2  4.2  3.17731e-06
2  4.7  1.06152e-06
2  5.2  3.67765e-07
2  6.2  5.36983e-08
2  5.7  1.41064e-07
2  6.7  2.13168e-08
2  7.2  8.53661e-09
2  7.7  3.8444e-09
2  8.2  1.62619e-09
2  8.7  7.13923e-10
2  9.2  3.15875e-10
2  9.7  1.37338e-10
2  10.2  6.51817e-11
2  10.7  3.01698e-11
2  11.2  1.44126e-11
2  11.7  7.07067e-12
20  0.2  0.0421107
20  0.7  0.0284336
20  1.2  0.00717995
20  1.7  0.00156688
20  2.2  0.000362527
20  2.7  9.30502e-05
20  3.2  2.51223e-05
20  3.7  7.57487e-06
20  4.2  2.43916e-06
20  5.2  2.86476e-07
20  4.7  8.25448e-07
20  5.7  1.09668e-07
20  6.7  1.65015e-08
20  6.2  4.44002e-08
20  7.7  2.9878e-09
20  7.2  7.14367e-09
20  8.2  1.27619e-09
20  8.7  5.52836e-10
20  9.2  2.42911e-10
20  9.7  1.10872e-10
20  10.2  4.96772e-11
20  10.7  2.38642e-11
20  11.7  5.47115e-12
20  11.2  1.12757e-11
22  0.2  0.0410311
22  0.7  0.0272218
22  1.2  0.00678299
22  1.7  0.00147995
22  2.2  0.000337936
22  2.7  8.4737e-05
22  3.2  2.37937e-05
22  3.7  6.9978e-06
22  4.2  2.22873e-06
22  4.7  7.76088e-07
22  5.2  2.72798e-07
22  5.7  1.06059e-07
22  6.7  1.61738e-08
22  6.2  4.14485e-08
22  7.2  6.58338e-09
22  7.7  2.72832e-09
22  8.2  1.18342e-09
22  8.7  5.25464e-10
22  9.2  2.3034e-10
22  9.7  9.80382e-11
22  10.2  4.64884e-11
22  10.7  2.22557e-11
22  11.7  4.82265e-12
22  11.2  1.04711e-11
24  0.2  0.0396289
24  0.7  0.0257173
24  1.2  0.00630716
24  1.7  0.00135332
24  2.2  0.000304824
24  2.7  7.84162e-05
24  3.7  6.51299e-06
24  3.2  2.15559e-05
24  4.2  1.97785e-06
24  4.7  7.08517e-07
24  5.2  2.46795e-07
24  5.7  9.65799e-08
24  6.2  3.69047e-08
24  7.2  5.86195e-09
24  7.7  2.53474e-09
24  6.7  1.46459e-08
24  8.2  1.07646e-09
24  8.7  4.74788e-10
24  9.2  2.11185e-10
24  9.7  9.5904e-11
24  10.2  4.33879e-11
24  10.7  2.04037e-11
24  11.2  9.19698e-12
24  11.7  4.38865e-12
26  0.2  0.0388785
26  0.7  0.0236471
26  1.2  0.00564074
26  1.7  0.00118772
26  2.2  0.000274381
26  2.7  6.85582e-05
26  3.2  1.90811e-05
26  3.7  5.67097e-06
26  4.2  1.79804e-06
26  4.7  6.16803e-07
26  5.2  2.22837e-07
26  5.7  8.40799e-08
26  6.2  3.10512e-08
26  6.7  1.22564e-08
26  7.2  5.28572e-09
26  7.7  2.21149e-09
26  8.2  9.25108e-10
26  8.7  3.96744e-10
26  9.2  1.80784e-10
26  9.7  7.98752e-11
26  10.2  3.84403e-11
26  10.7  1.78071e-11
26  11.7  4.04437e-12
26  11.2  8.34997e-12
28  0.2  0.0360014
28  0.7  0.0205568
28  1.2  0.00495846
28  1.7  0.00099854
28  2.2  0.000233625
28  2.7  5.7081e-05
28  3.7  4.84418e-06
28  3.2  1.56636e-05
28  4.2  1.50492e-06
28  4.7  5.1903e-07
28  5.2  1.83527e-07
28  5.7  6.73895e-08
28  6.2  2.67322e-08
28  6.7  1.08065e-08
28  7.2  4.16831e-09
28  7.7  1.82182e-09
28  8.7  3.43948e-10
28  8.2  7.69956e-10
28  9.2  1.56237e-10
28  9.7  7.05312e-11
28  10.2  3.18989e-11
28  10.7  1.45422e-11
28  11.2  6.97293e-12
28  11.7  3.29207e-12
30  0.2  0.0325329
30  0.7  0.0173261
30  1.2  0.00390699
30  2.2  0.000183369
30  1.7  0.000795548
30  2.7  4.50172e-05
30  3.2  1.27476e-05
30  3.7  3.86124e-06
30  4.2  1.22207e-06
30  4.7  4.06341e-07
30  5.2  1.48037e-07
30  5.7  5.40142e-08
30  6.2  2.0304e-08
30  6.7  8.16824e-09
30  7.2  3.26983e-09
30  7.7  1.45597e-09
30  8.2  6.13566e-10
30  9.2  1.17287e-10
30  8.7  2.68579e-10
30  9.7  5.40836e-11
30  10.2  2.50108e-11
30  10.7  1.17131e-11
30  11.2  5.35463e-12
32  0.2  0.028724
30  11.7  2.58728e-12
32  0.7  0.0133197
32  1.2  0.00284777
32  1.7  0.000592578
32  2.7  3.24691e-05
32  2.2  0.000128546
32  3.2  8.75554e-06
32  3.7  2.69549e-06
32  4.2  8.62263e-07
32  4.7  2.88275e-07
32  5.2  1.01532e-07
32  5.7  3.8154e-08
32  6.2  1.48732e-08
32  6.7  5.87518e-09
32  7.2  2.40844e-09
32  7.7  1.00085e-09
32  8.2  4.40451e-10
32  8.7  1.89931e-10
32  9.2  8.4586e-11
32  9.7  3.73778e-11
32  10.2  1.75943e-11
32  10.7  8.41692e-12
32  11.2  3.9466e-12
32  11.7  1.86575e-12
4  0.2  0.045042
4  0.7  0.0316285
4  1.2  0.00857399
4  1.7  0.00197906
4  2.2  0.000454487
4  2.7  0.000115302
4  3.2  3.10781e-05
4  4.2  3.10276e-06
4  3.7  9.76648e-06
4  4.7  1.058e-06
4  5.2  3.65499e-07
4  5.7  1.40472e-07
4  6.2  5.30997e-08
4  6.7  2.19595e-08
4  7.2  8.52995e-09
4  7.7  3.80929e-09
4  8.2  1.61715e-09
4  9.2  3.03518e-10
4  8.7  7.11169e-10
4  9.7  1.42321e-10
4  10.2  6.52611e-11
4  10.7  3.02018e-11
4  11.2  1.41645e-11
4  11.7  6.57927e-12
6  0.2  0.0456023
6  1.2  0.00856983
6  0.7  0.0314215
6  1.7  0.00191141
6  2.2  0.000449038
6  2.7  0.00011583
6  3.7  9.41296e-06
6  3.2  3.07958e-05
6  4.2  3.04708e-06
6  4.7  1.0583e-06
6  5.2  3.76657e-07
6  5.7  1.39669e-07
6  6.2  5.39796e-08
6  6.7  2.09703e-08
6  7.2  9.02881e-09
6  7.7  3.7573e-09
6  8.2  1.59172e-09
6  8.7  6.66567e-10
6  9.2  3.07109e-10
6  9.7  1.39644e-10
6  10.2  6.44413e-11
6  10.7  2.95561e-11
6  11.2  1.36823e-11
6  11.7  6.69639e-12
8  0.2  0.0450713
8  0.7  0.031465
8  1.2  0.00845334
8  1.7  0.00189195
8  2.2  0.000451892
8  2.7  0.000110507
8  3.2  3.1573e-05
8  3.7  9.52451e-06
8  4.2  2.97549e-06
8  4.7  1.01292e-06
8  5.2  3.72149e-07
8  5.7  1.33067e-07
8  6.2  5.25284e-08
8  6.7  2.15673e-08
8  7.2  8.75145e-09
8  7.7  3.70056e-09
8  8.2  1.56547e-09
8  8.7  6.6524e-10
8  9.2  3.0713e-10
8  10.2  6.32775e-11
8  9.7  1.38347e-10
8  10.7  2.94825e-11
8  11.2  1.34912e-11
8  11.7  6.49772e-12
