# diffractive D0 cross section, Pb target, KniehlKramer fragmentation, An0n channel
# dipole samples : data/Pb/mve/glauber_mve_<b>
# pD0 sweep      : 0.2 to 12.0 GeV, step 0.5
# fixed rapidity y : 2.5
# ============================================================
# b  pD0  dsigma_dyd2pD0
0  0.7  0.241165
0  0.2  0.285934
0  1.7  0.0251909
0  1.2  0.0848458
0  2.2  0.00812669
0  2.7  0.00288216
0  3.2  0.00110476
0  4.2  0.000213308
0  3.7  0.000457006
0  5.2  4.76557e-05
0  4.7  9.77683e-05
0  5.7  2.43705e-05
0  6.2  1.30563e-05
0  7.2  4.02797e-06
0  6.7  7.2372e-06
0  7.7  2.31443e-06
0  8.7  8.11681e-07
0  8.2  1.38302e-06
0  9.2  5.10821e-07
0  9.7  3.14666e-07
0  10.2  1.97024e-07
0  10.7  1.24982e-07
0  11.2  8.02896e-08
10  0.2  0.284645
0  11.7  5.19278e-08
10  1.2  0.0816603
10  0.7  0.235536
10  1.7  0.0243957
10  2.7  0.00270661
10  2.2  0.00770498
10  3.2  0.00104253
10  3.7  0.000433989
10  4.2  0.000194515
10  4.7  9.1607e-05
10  5.2  4.44349e-05
10  5.7  2.35634e-05
10  6.7  6.9663e-06
10  6.2  1.2187e-05
10  7.7  2.24643e-06
10  7.2  3.83979e-06
10  8.2  1.30861e-06
10  8.7  8.07678e-07
10  9.7  2.97353e-07
10  9.2  4.75851e-07
10  10.7  1.17327e-07
10  10.2  1.8622e-07
10  11.2  7.64839e-08
10  11.7  4.97701e-08
12  0.2  0.27997
12  0.7  0.231976
12  1.7  0.0237175
12  1.2  0.0801911
12  2.2  0.0076335
12  2.7  0.00260459
12  3.2  0.00100025
12  3.7  0.000435557
12  4.2  0.000191943
12  4.7  9.11781e-05
12  5.2  4.4723e-05
12  5.7  2.23664e-05
12  6.2  1.19057e-05
12  6.7  6.67463e-06
12  7.2  3.77889e-06
12  7.7  2.17372e-06
12  8.2  1.26862e-06
12  8.7  7.67667e-07
12  9.2  4.69128e-07
12  9.7  2.90285e-07
12  10.7  1.14656e-07
12  10.2  1.80828e-07
12  11.7  4.72138e-08
12  11.2  7.56347e-08
14  0.2  0.282626
14  0.7  0.228838
14  1.2  0.0781464
14  1.7  0.0237541
14  2.2  0.00738765
14  2.7  0.00254074
14  3.2  0.000991888
14  3.7  0.000402028
14  4.2  0.000182828
14  4.7  8.84923e-05
14  5.2  4.38357e-05
14  5.7  2.2204e-05
14  6.2  1.15994e-05
14  6.7  6.52437e-06
14  7.2  3.68207e-06
14  7.7  2.11335e-06
14  8.2  1.25788e-06
14  8.7  7.43156e-07
14  9.2  4.56047e-07
14  9.7  2.78877e-07
14  10.2  1.76581e-07
14  10.7  1.1318e-07
14  11.2  7.26996e-08
16  0.2  0.2761
14  11.7  4.68704e-08
16  0.7  0.223208
16  1.2  0.07608
16  1.7  0.0226119
16  2.7  0.00247011
16  2.2  0.00701823
16  3.2  0.000938229
16  3.7  0.000393785
16  4.2  0.00017455
16  5.2  4.02972e-05
16  4.7  8.53091e-05
16  5.7  2.09807e-05
16  6.2  1.15533e-05
16  6.7  6.22964e-06
16  7.2  3.54236e-06
16  7.7  2.02852e-06
16  8.2  1.20007e-06
16  8.7  7.21255e-07
16  9.2  4.40396e-07
16  9.7  2.69208e-07
16  10.7  1.07651e-07
16  10.2  1.71139e-07
16  11.2  7.07188e-08
16  11.7  4.51405e-08
18  0.2  0.271028
18  1.2  0.0712427
18  0.7  0.217823
18  2.2  0.00697828
18  1.7  0.02151
18  2.7  0.00234325
18  3.2  0.000908583
18  3.7  0.000375697
18  4.2  0.000166524
18  4.7  8.04539e-05
18  5.2  4.00369e-05
18  5.7  2.02271e-05
18  6.2  1.08393e-05
18  6.7  5.8937e-06
18  7.2  3.48685e-06
18  7.7  1.93593e-06
18  8.2  1.13551e-06
18  8.7  6.85459e-07
18  9.7  2.55877e-07
18  9.2  4.21957e-07
18  10.2  1.64453e-07
18  10.7  1.01589e-07
18  11.2  6.54012e-08
18  11.7  4.27573e-08
2  0.2  0.286176
2  0.7  0.23954
2  1.7  0.025253
2  1.2  0.0843658
2  2.7  0.00280723
2  2.2  0.00804886
2  3.2  0.00109606
2  3.7  0.000445798
2  4.2  0.000201556
2  4.7  9.82046e-05
2  5.2  4.83226e-05
2  5.7  2.47999e-05
2  6.2  1.31058e-05
2  6.7  7.12448e-06
2  7.2  3.94931e-06
2  7.7  2.33969e-06
2  8.2  1.39411e-06
2  8.7  8.22337e-07
2  9.7  3.08203e-07
2  9.2  5.03483e-07
2  10.2  1.97511e-07
2  10.7  1.21433e-07
2  11.2  8.04124e-08
20  0.2  0.26683
2  11.7  5.21712e-08
20  0.7  0.206651
20  1.2  0.0688229
20  1.7  0.0204846
20  2.2  0.00648159
20  2.7  0.002295
20  3.2  0.000843488
20  3.7  0.000372098
20  4.2  0.00016347
20  4.7  7.6097e-05
20  5.7  1.89073e-05
20  5.2  3.70409e-05
20  6.2  1.008e-05
20  6.7  5.55483e-06
20  7.2  3.26304e-06
20  7.7  1.83256e-06
20  8.2  1.10889e-06
20  8.7  6.64455e-07
20  9.2  3.92136e-07
20  9.7  2.46085e-07
20  10.7  9.73888e-08
20  10.2  1.5437e-07
20  11.2  6.19795e-08
20  11.7  4.08728e-08
22  0.2  0.262105
22  0.7  0.198855
22  1.2  0.06442
22  1.7  0.0193192
22  2.2  0.00590591
22  2.7  0.00207393
22  3.2  0.000813212
22  3.7  0.000342898
22  4.2  0.00014653
22  4.7  6.90546e-05
22  5.2  3.44578e-05
22  5.7  1.78462e-05
22  6.2  9.72959e-06
22  6.7  5.29221e-06
22  7.7  1.71335e-06
22  7.2  2.96389e-06
22  8.2  9.81399e-07
22  8.7  5.94852e-07
22  9.2  3.70992e-07
22  9.7  2.31162e-07
22  10.2  1.42531e-07
22  10.7  9.11846e-08
22  11.2  5.80486e-08
24  0.2  0.247599
22  11.7  3.74254e-08
24  0.7  0.188732
24  1.2  0.0602349
24  2.2  0.00553109
24  1.7  0.0177807
24  2.7  0.00191358
24  3.7  0.000303266
24  3.2  0.000740509
24  4.7  6.49491e-05
24  4.2  0.000135788
24  5.2  3.19783e-05
24  5.7  1.65279e-05
24  6.2  8.46828e-06
24  6.7  4.90534e-06
24  7.2  2.72759e-06
24  8.2  8.88837e-07
24  7.7  1.56548e-06
24  9.2  3.36198e-07
24  8.7  5.45889e-07
24  9.7  2.08395e-07
24  10.7  8.1569e-08
24  10.2  1.29152e-07
24  11.2  5.3517e-08
26  0.2  0.238432
24  11.7  3.44089e-08
26  0.7  0.171782
26  1.2  0.0543251
26  1.7  0.0156271
26  2.2  0.00486442
26  2.7  0.00170239
26  3.2  0.000658951
26  3.7  0.000275279
26  4.2  0.000119412
26  4.7  5.60453e-05
26  5.2  2.80404e-05
26  5.7  1.46295e-05
26  6.2  7.66793e-06
26  6.7  4.10179e-06
26  7.2  2.36549e-06
26  7.7  1.365e-06
26  8.2  7.96201e-07
26  9.2  2.85583e-07
26  8.7  4.75302e-07
26  9.7  1.8079e-07
26  10.2  1.13268e-07
26  10.7  7.41023e-08
26  11.2  4.70658e-08
26  11.7  2.99557e-08
28  0.2  0.227441
28  0.7  0.151348
28  1.2  0.0469054
28  1.7  0.013605
28  2.2  0.0040845
28  2.7  0.00145548
28  3.2  0.000545216
28  3.7  0.000229983
28  4.7  4.83507e-05
28  4.2  0.000100041
28  5.2  2.35236e-05
28  5.7  1.22082e-05
28  6.2  6.39296e-06
28  6.7  3.5689e-06
28  7.2  2.04327e-06
28  7.7  1.1424e-06
28  8.2  6.77083e-07
28  8.7  4.07338e-07
28  9.2  2.43105e-07
28  9.7  1.56405e-07
28  10.2  9.75044e-08
28  10.7  6.079e-08
28  11.2  3.94787e-08
30  0.2  0.203902
28  11.7  2.57353e-08
30  0.7  0.13031
30  1.2  0.0374364
30  1.7  0.0103892
30  2.2  0.00331575
30  2.7  0.00111555
30  3.2  0.000422765
30  3.7  0.000179747
30  4.2  7.90991e-05
30  4.7  3.81509e-05
30  5.2  1.76699e-05
30  6.2  5.0289e-06
30  5.7  9.27085e-06
30  6.7  2.84328e-06
30  7.2  1.58747e-06
30  8.2  5.12029e-07
30  7.7  9.1798e-07
30  8.7  3.19002e-07
30  9.2  1.94137e-07
30  9.7  1.23384e-07
30  10.7  4.7486e-08
30  10.2  7.72986e-08
30  11.2  3.10222e-08
30  11.7  1.97787e-08
32  0.2  0.169734
32  0.7  0.0978724
32  1.2  0.0275063
32  1.7  0.0075888
32  2.2  0.00227394
32  2.7  0.000799721
32  3.2  0.000314124
32  4.2  5.62988e-05
32  4.7  2.63631e-05
32  3.7  0.000129287
32  5.2  1.26462e-05
32  5.7  6.94045e-06
32  6.2  3.70589e-06
32  6.7  1.99167e-06
32  7.2  1.10382e-06
32  7.7  6.51986e-07
32  8.2  3.7867e-07
32  8.7  2.30884e-07
32  9.2  1.41818e-07
32  9.7  8.51422e-08
32  10.2  5.43917e-08
32  11.2  2.13234e-08
32  10.7  3.52204e-08
32  11.7  1.41333e-08
4  0.2  0.288262
4  0.7  0.239578
4  1.2  0.084611
4  1.7  0.0252824
4  2.7  0.0029266
4  2.2  0.00806148
4  3.2  0.00106952
4  4.2  0.000200957
4  3.7  0.000450863
4  4.7  9.6935e-05
4  5.2  4.6841e-05
4  5.7  2.41375e-05
4  6.2  1.30011e-05
4  6.7  7.12304e-06
4  8.2  1.40888e-06
4  7.7  2.28861e-06
4  7.2  4.03467e-06
4  8.7  8.43605e-07
4  9.2  5.14332e-07
4  10.2  1.90277e-07
4  10.7  1.2021e-07
4  9.7  3.13393e-07
4  11.2  8.02077e-08
4  11.7  5.0982e-08
6  0.2  0.288295
6  0.7  0.238205
6  1.2  0.0818545
6  1.7  0.0253502
6  2.2  0.00789311
6  2.7  0.00277969
6  3.2  0.00107738
6  3.7  0.000448035
6  4.2  0.000202819
6  4.7  9.61448e-05
6  5.7  2.40513e-05
6  5.2  4.76851e-05
6  6.2  1.28264e-05
6  6.7  6.95133e-06
6  7.2  3.97288e-06
6  8.2  1.37107e-06
6  7.7  2.31125e-06
6  9.2  5.08904e-07
6  8.7  8.17841e-07
6  9.7  3.12891e-07
6  10.2  1.89866e-07
6  10.7  1.23335e-07
6  11.2  7.93738e-08
6  11.7  5.0748e-08
8  0.2  0.283167
8  0.7  0.236078
8  1.7  0.0248793
8  1.2  0.0830528
8  2.7  0.00281215
8  2.2  0.00782912
8  3.2  0.00107003
8  3.7  0.000443463
8  4.2  0.000197221
8  4.7  9.41659e-05
8  5.2  4.58703e-05
8  5.7  2.3769e-05
8  6.2  1.25244e-05
8  6.7  6.96499e-06
8  7.2  3.92198e-06
8  7.7  2.28031e-06
8  8.2  1.3392e-06
8  8.7  8.06391e-07
8  9.2  4.92166e-07
8  9.7  3.03516e-07
8  10.2  1.8904e-07
8  10.7  1.2135e-07
8  11.2  7.76613e-08
8  11.7  5.04981e-08
