# diffractive D0 cross section, Pb target, BCFY fragmentation, An0n channel
# dipole samples : data/Pb/mve/glauber_mve_<b>
# pD0 sweep      : 0.2 to 12.0 GeV, step 0.5
# fixed rapidity y : 0.0
# ============================================================
# b  pD0  dsigma_dyd2pD0
0  0.7  1.68081
0  1.7  0.510244
0  0.2  0.831981
0  1.2  1.10622
0  2.2  0.231581
0  2.7  0.109967
0  3.2  0.0555423
0  4.2  0.0173685
0  3.7  0.0302433
0  4.7  0.0103348
0  5.2  0.00640199
0  5.7  0.00415035
0  6.2  0.00274438
0  6.7  0.00186746
0  7.7  0.00092702
0  7.2  0.00130361
0  8.2  0.000671144
0  9.7  0.000280421
0  8.7  0.000495261
0  9.2  0.000376964
0  10.2  0.00021184
0  10.7  0.000162707
0  11.2  0.000126192
10  0.2  0.815791
0  11.7  9.90166e-05
10  0.7  1.68345
10  1.2  1.05575
10  1.7  0.494265
10  2.2  0.220105
10  2.7  0.104295
10  3.2  0.0531099
10  3.7  0.0285428
10  4.7  0.00999519
10  4.2  0.0163344
10  5.2  0.00617783
10  6.2  0.00265152
10  5.7  0.00392932
10  6.7  0.00179026
10  7.2  0.00124206
10  7.7  0.00088217
10  8.7  0.000481539
10  8.2  0.00063768
10  9.2  0.00035081
10  9.7  0.000270347
10  10.7  0.000158034
10  10.2  0.00019824
10  11.2  0.000121011
12  0.2  0.81149
12  0.7  1.63692
10  11.7  9.46162e-05
12  1.2  1.04349
12  1.7  0.483686
12  2.7  0.102487
12  2.2  0.216051
12  3.2  0.0519521
12  3.7  0.0278416
12  4.2  0.0158462
12  4.7  0.00958251
12  5.7  0.00392333
12  5.2  0.00596676
12  7.2  0.0012538
12  6.7  0.00175557
12  6.2  0.00254689
12  9.2  0.000342777
12  7.7  0.000859792
12  8.7  0.00045994
12  8.2  0.000631339
12  9.7  0.000255933
12  10.7  0.000152109
12  10.2  0.000201622
12  11.7  9.41769e-05
12  11.2  0.000120591
14  0.2  0.818102
14  0.7  1.60872
14  1.2  1.02906
14  2.2  0.209606
14  2.7  0.0995147
14  1.7  0.473343
14  3.2  0.0507128
14  3.7  0.0275598
14  4.7  0.00946847
14  4.2  0.015591
14  5.2  0.00589498
14  6.2  0.00249656
14  5.7  0.0037436
14  7.2  0.00117225
14  6.7  0.0016896
14  7.7  0.000834319
14  8.2  0.000619236
14  8.7  0.000451416
14  9.2  0.000332561
14  9.7  0.000249287
14  10.2  0.000188204
14  10.7  0.000148322
14  11.7  8.92246e-05
14  11.2  0.000114055
16  0.2  0.797601
16  1.2  0.996891
16  0.7  1.61195
16  2.2  0.202631
16  1.7  0.450291
16  2.7  0.0967077
16  3.2  0.0484226
16  3.7  0.0260946
16  4.7  0.00907233
16  5.7  0.00368562
16  4.2  0.0150436
16  5.2  0.00559313
16  6.2  0.00247534
16  6.7  0.00162883
16  7.2  0.00113586
16  8.2  0.000586701
16  7.7  0.000807827
16  8.7  0.000440252
16  9.2  0.000323773
16  10.2  0.000185554
16  9.7  0.000246074
16  11.2  0.000113055
16  10.7  0.000140793
16  11.7  8.71071e-05
18  0.7  1.5493
18  0.2  0.786095
18  1.2  0.967753
18  1.7  0.433607
18  2.7  0.0911531
18  2.2  0.196313
18  3.2  0.0470012
18  3.7  0.0251874
18  4.7  0.00860625
18  4.2  0.0141713
18  5.2  0.00531245
18  5.7  0.00342716
18  6.2  0.00229423
18  7.2  0.00109016
18  6.7  0.00155977
18  7.7  0.000768523
18  8.2  0.0005573
18  8.7  0.000410005
18  9.2  0.000319633
18  9.7  0.000235024
18  10.2  0.000174154
18  10.7  0.000138438
2  0.2  0.833252
18  11.2  0.000105208
18  11.7  8.26976e-05
2  0.7  1.7117
2  1.2  1.09608
2  1.7  0.501828
2  2.2  0.230117
2  2.7  0.109224
2  3.7  0.029987
2  3.2  0.055892
2  4.2  0.0174112
2  4.7  0.0103038
2  5.2  0.00655013
2  5.7  0.00424552
2  6.7  0.00188122
2  7.2  0.00133005
2  6.2  0.00273002
2  7.7  0.000931457
2  8.2  0.000683257
2  8.7  0.00049417
2  9.2  0.000365371
2  10.2  0.000209814
2  9.7  0.000276287
2  11.2  0.000129052
2  10.7  0.000161892
20  0.2  0.783384
2  11.7  9.84591e-05
20  0.7  1.52743
20  1.2  0.930455
20  1.7  0.419283
20  2.2  0.184785
20  2.7  0.08697
20  3.7  0.0237394
20  3.2  0.0440139
20  4.2  0.0134497
20  4.7  0.00807736
20  5.2  0.00501321
20  5.7  0.00321986
20  6.2  0.00216493
20  7.7  0.00074736
20  6.7  0.00147413
20  7.2  0.00102369
20  8.2  0.000543086
20  8.7  0.00038615
20  9.7  0.000216759
20  9.2  0.000295342
20  11.2  9.93587e-05
20  10.2  0.000164944
20  11.7  7.9025e-05
20  10.7  0.00012872
22  0.2  0.733758
22  1.2  0.874966
22  0.7  1.44527
22  2.7  0.0821422
22  1.7  0.395317
22  2.2  0.17271
22  3.7  0.0220089
22  4.2  0.012822
22  3.2  0.0406104
22  5.2  0.00463485
22  4.7  0.00752909
22  6.2  0.0020136
22  5.7  0.00300635
22  6.7  0.00139936
22  7.2  0.000949322
22  7.7  0.000691849
22  8.7  0.000371413
22  8.2  0.000488912
22  9.2  0.000267517
22  9.7  0.000206532
22  10.2  0.000152208
22  11.2  9.41515e-05
22  10.7  0.000122423
22  11.7  7.40159e-05
24  0.2  0.732205
24  0.7  1.37756
24  1.2  0.810422
24  2.7  0.0739072
24  1.7  0.361199
24  2.2  0.158503
24  3.7  0.0200046
24  3.2  0.0370872
24  4.2  0.0113712
24  4.7  0.0067975
24  5.2  0.0043658
24  6.2  0.00181334
24  6.7  0.00123657
24  5.7  0.00273562
24  7.7  0.000627446
24  7.2  0.000864306
24  8.2  0.000444999
24  8.7  0.000326539
24  9.7  0.000188558
24  10.2  0.000142849
24  9.2  0.000243493
24  11.2  8.58267e-05
24  10.7  0.000110673
26  0.2  0.703038
24  11.7  6.72873e-05
26  0.7  1.29159
26  1.2  0.733869
26  2.2  0.140245
26  1.7  0.320617
26  2.7  0.0658643
26  3.7  0.0176868
26  3.2  0.0324074
26  4.7  0.00611589
26  4.2  0.0103455
26  5.7  0.00248418
26  6.2  0.00161463
26  5.2  0.00378022
26  7.2  0.0007734
26  6.7  0.00112262
26  8.2  0.000403123
26  7.7  0.000556385
26  9.7  0.000163843
26  8.7  0.00029593
26  10.2  0.00012187
26  9.2  0.000214095
26  11.2  7.48432e-05
26  10.7  9.709e-05
28  0.7  1.16261
28  0.2  0.666264
28  1.2  0.637685
26  11.7  5.80313e-05
28  1.7  0.272287
28  2.7  0.0550236
28  2.2  0.118708
28  3.2  0.0277824
28  3.7  0.0148962
28  4.2  0.00870796
28  4.7  0.00516107
28  5.2  0.00314374
28  6.7  0.000932474
28  5.7  0.00202119
28  6.2  0.00138006
28  8.2  0.00033649
28  7.7  0.000452123
28  7.2  0.000654024
28  8.7  0.000246722
28  10.2  0.000102027
28  9.7  0.000134951
28  9.2  0.000184333
28  10.7  7.90667e-05
28  11.2  6.17788e-05
30  0.7  0.998456
28  11.7  4.90199e-05
30  0.2  0.611604
30  2.2  0.0936906
30  1.2  0.516726
30  1.7  0.215765
30  2.7  0.043735
30  3.2  0.0214243
30  3.7  0.0118878
30  4.2  0.00663538
30  4.7  0.00404014
30  5.2  0.00244178
30  6.2  0.00109059
30  5.7  0.00159538
30  6.7  0.000743162
30  7.2  0.000498623
30  8.7  0.000193319
30  8.2  0.000263029
30  7.7  0.000360692
30  9.7  0.000108632
30  9.2  0.000138312
30  10.7  6.21139e-05
30  10.2  8.03194e-05
30  11.7  3.84073e-05
30  11.2  4.76153e-05
32  0.7  0.776265
32  0.2  0.537796
32  1.2  0.381855
32  2.2  0.0665362
32  1.7  0.156785
32  3.2  0.0155869
32  2.7  0.0309408
32  3.7  0.00842312
32  4.7  0.00284536
32  4.2  0.0048291
32  5.2  0.00176145
32  6.2  0.000776035
32  5.7  0.00113384
32  6.7  0.000520798
32  7.2  0.000358208
32  8.2  0.000184233
32  7.7  0.000256022
32  8.7  0.000137342
32  9.2  9.87813e-05
32  9.7  7.60147e-05
32  10.2  5.75337e-05
32  10.7  4.51011e-05
32  11.2  3.4554e-05
32  11.7  2.71747e-05
4  0.2  0.828836
4  0.7  1.67514
4  1.2  1.09481
4  1.7  0.506119
4  2.7  0.108788
4  2.2  0.230456
4  3.2  0.0554415
4  5.2  0.00643691
4  4.2  0.0172219
4  3.7  0.0299176
4  4.7  0.0102506
4  5.7  0.00421066
4  6.2  0.00273305
4  7.7  0.00092695
4  6.7  0.00186091
4  7.2  0.00129957
4  8.7  0.000498364
4  9.2  0.000372923
4  8.2  0.000667864
4  10.2  0.000215618
4  9.7  0.000279988
4  11.2  0.000129332
4  10.7  0.000163722
6  0.2  0.7945
6  1.2  1.07048
6  0.7  1.67392
4  11.7  9.8035e-05
6  2.2  0.228218
6  1.7  0.506974
6  2.7  0.107436
6  3.7  0.0293407
6  3.2  0.0547516
6  4.7  0.0100955
6  4.2  0.0168383
6  5.2  0.00624932
6  5.7  0.00403516
6  6.7  0.00184422
6  6.2  0.0027048
6  7.7  0.000914831
6  7.2  0.00128319
6  8.2  0.000680945
6  9.2  0.000369112
6  8.7  0.000484273
6  9.7  0.000272876
6  10.2  0.000207665
6  11.7  9.7533e-05
6  10.7  0.000158369
8  0.2  0.823255
6  11.2  0.000124359
8  0.7  1.66531
8  1.2  1.08612
8  1.7  0.501319
8  2.2  0.223066
8  3.7  0.0293439
8  3.2  0.0539325
8  2.7  0.106093
8  4.2  0.0164966
8  4.7  0.0101693
8  5.2  0.00635543
8  5.7  0.00404256
8  6.7  0.00184478
8  6.2  0.00266529
8  7.2  0.00125898
8  8.2  0.000653207
8  7.7  0.00090005
8  9.2  0.000367994
8  8.7  0.000475587
8  9.7  0.000275893
8  10.7  0.000159914
8  10.2  0.000210196
8  11.7  9.6233e-05
8  11.2  0.000121451
