# diffractive D0 cross section, Pb target, BCFY fragmentation, An0n channel
# dipole samples : data/Pb/mve/glauber_mve_<b>
# pD0 sweep      : 0.2 to 12.0 GeV, step 0.5
# fixed rapidity y : 1.0
# ============================================================
# b  pD0  dsigma_dyd2pD0
0  0.2  0.635501
0  0.7  1.28951
0  2.2  0.150081
0  1.2  0.799225
0  2.7  0.066787
0  1.7  0.353554
0  3.2  0.0323166
0  3.7  0.0165654
0  5.2  0.00312936
0  5.7  0.00192574
0  4.2  0.00905794
0  4.7  0.00515011
0  6.7  0.000805312
0  6.2  0.00124385
0  7.2  0.000548804
0  7.7  0.000374316
0  9.7  9.67091e-05
0  8.2  0.000257859
0  9.2  0.000132232
0  8.7  0.00018299
0  10.2  7.10092e-05
0  10.7  5.41237e-05
0  11.2  4.02651e-05
10  0.2  0.626435
10  0.7  1.25883
0  11.7  3.02325e-05
10  1.2  0.768747
10  2.2  0.14423
10  1.7  0.334668
10  3.2  0.0308294
10  2.7  0.0644897
10  4.2  0.00878982
10  5.2  0.00294503
10  4.7  0.00493502
10  3.7  0.0158829
10  5.7  0.00182999
10  7.2  0.000517278
10  6.2  0.00118667
10  6.7  0.000760701
10  7.7  0.000354727
10  8.2  0.000247023
10  8.7  0.00017511
10  9.2  0.00012534
10  10.2  6.89712e-05
10  10.7  5.12674e-05
10  11.2  3.85487e-05
10  9.7  9.23871e-05
10  11.7  2.89953e-05
12  0.2  0.619908
12  0.7  1.24062
12  1.2  0.753124
12  2.2  0.138886
12  2.7  0.0638511
12  1.7  0.331182
12  3.2  0.0305132
12  3.7  0.0155912
12  5.2  0.00291478
12  4.2  0.00840553
12  4.7  0.0048464
12  5.7  0.00180539
12  6.2  0.00114002
12  7.2  0.000506317
12  6.7  0.000748561
12  7.7  0.000344231
12  8.2  0.000239593
12  8.7  0.000169687
12  9.2  0.000122203
12  9.7  9.14077e-05
12  10.7  5.02414e-05
12  10.2  6.77863e-05
14  0.2  0.622844
12  11.7  2.8638e-05
12  11.2  3.75924e-05
14  0.7  1.23636
14  2.2  0.137347
14  1.2  0.740863
14  1.7  0.322079
14  3.2  0.0292882
14  2.7  0.0610999
14  4.7  0.00468345
14  4.2  0.00809299
14  3.7  0.0150536
14  5.7  0.00175317
14  5.2  0.00280891
14  6.2  0.00112411
14  7.2  0.000498655
14  6.7  0.00073242
14  7.7  0.000325223
14  8.7  0.000166701
14  8.2  0.000233305
14  9.2  0.000121832
14  9.7  8.57303e-05
14  10.2  6.41545e-05
14  10.7  4.85627e-05
14  11.7  2.80713e-05
14  11.2  3.65719e-05
16  0.7  1.2123
16  0.2  0.610865
16  1.2  0.72648
16  1.7  0.315416
16  3.2  0.0279262
16  2.2  0.13166
16  2.7  0.0585691
16  4.2  0.00788271
16  3.7  0.0145975
16  4.7  0.00445237
16  5.2  0.00269502
16  5.7  0.00167695
16  6.2  0.00107313
16  6.7  0.000704617
16  7.2  0.000473399
16  7.7  0.000322152
16  8.2  0.00022517
16  8.7  0.000160356
16  9.2  0.000113357
16  9.7  8.30378e-05
16  11.2  3.44748e-05
16  10.2  6.3927e-05
16  10.7  4.62244e-05
18  0.2  0.612296
18  1.2  0.697827
18  0.7  1.17973
16  11.7  2.66651e-05
18  1.7  0.303675
18  2.2  0.126071
18  2.7  0.0561873
18  3.7  0.0138639
18  3.2  0.0270025
18  4.2  0.0076223
18  4.7  0.0042689
18  6.2  0.00101111
18  5.7  0.00162119
18  5.2  0.00260258
18  7.7  0.000306692
18  7.2  0.00044944
18  6.7  0.000674067
18  8.2  0.000213767
18  8.7  0.00015241
18  9.2  0.000110542
18  10.2  5.97152e-05
18  9.7  8.07891e-05
18  11.7  2.55244e-05
18  10.7  4.4567e-05
2  0.2  0.634389
18  11.2  3.36242e-05
2  0.7  1.2926
2  1.2  0.805548
2  1.7  0.351622
2  2.2  0.149764
2  3.7  0.0163786
2  2.7  0.0669911
2  4.2  0.00905954
2  3.2  0.0323064
2  5.2  0.00314388
2  4.7  0.00513205
2  5.7  0.00188881
2  6.2  0.00122285
2  6.7  0.000812835
2  7.2  0.000541483
2  7.7  0.000371902
2  8.2  0.000262816
2  8.7  0.000182831
2  9.7  9.8764e-05
2  9.2  0.000131702
2  10.2  7.08273e-05
2  10.7  5.24735e-05
2  11.7  3.12156e-05
20  0.7  1.15198
20  0.2  0.593043
2  11.2  3.9796e-05
20  1.7  0.286578
20  1.2  0.672483
20  2.2  0.119124
20  4.2  0.00723098
20  2.7  0.0535482
20  3.2  0.0254404
20  3.7  0.0130706
20  5.2  0.0024001
20  4.7  0.00405247
20  5.7  0.0014809
20  6.2  0.000983677
20  7.2  0.000421996
20  6.7  0.000633437
20  8.2  0.000203003
20  7.7  0.00029044
20  9.7  7.59916e-05
20  8.7  0.000141791
20  9.2  0.000106147
20  10.7  4.18866e-05
20  11.2  3.19236e-05
20  10.2  5.56754e-05
20  11.7  2.44437e-05
22  0.2  0.577381
22  0.7  1.1153
22  1.2  0.624572
22  2.7  0.0496236
22  2.2  0.111879
22  1.7  0.267971
22  3.7  0.0123585
22  3.2  0.0235634
22  4.2  0.00657735
22  4.7  0.00381929
22  5.2  0.00228558
22  6.2  0.000901736
22  5.7  0.00142088
22  8.2  0.000185695
22  7.2  0.000400938
22  6.7  0.000594185
22  7.7  0.000270833
22  9.2  9.7746e-05
22  8.7  0.00013479
22  10.2  5.31958e-05
22  9.7  7.0699e-05
22  11.2  2.95053e-05
22  10.7  3.89229e-05
22  11.7  2.18199e-05
24  0.2  0.563354
24  0.7  1.06235
24  1.7  0.241923
24  1.2  0.583695
24  2.2  0.101416
24  2.7  0.0458203
24  3.2  0.0214384
24  4.7  0.00346949
24  3.7  0.0109785
24  4.2  0.00604273
24  5.2  0.00208343
24  5.7  0.00128009
24  6.2  0.000799014
24  6.7  0.000547575
24  7.7  0.000247945
24  8.2  0.000170075
24  7.2  0.000359861
24  8.7  0.000122613
24  9.7  6.48972e-05
24  9.2  8.87915e-05
24  10.7  3.421e-05
24  10.2  4.7223e-05
24  11.2  2.66983e-05
26  0.2  0.541339
24  11.7  2.04508e-05
26  0.7  0.991542
26  1.2  0.525234
26  1.7  0.219707
26  2.2  0.0902513
26  2.7  0.0398425
26  3.2  0.0189852
26  3.7  0.00988498
26  4.2  0.00533707
26  4.7  0.00307187
26  5.2  0.00185338
26  6.2  0.000717177
26  5.7  0.00113882
26  7.2  0.000308287
26  6.7  0.000472511
26  7.7  0.000218246
26  8.2  0.000151994
26  8.7  0.000108164
26  9.2  7.77348e-05
26  9.7  5.63327e-05
26  10.7  3.09432e-05
26  11.7  1.7634e-05
26  10.2  4.15501e-05
26  11.2  2.33242e-05
28  0.2  0.514962
28  0.7  0.889878
28  2.7  0.0333506
28  2.2  0.075723
28  1.2  0.457337
28  1.7  0.185718
28  4.2  0.00445808
28  3.2  0.0157801
28  3.7  0.00832539
28  5.2  0.00155075
28  4.7  0.0025928
28  5.7  0.000937644
28  6.2  0.000606778
28  6.7  0.000401169
28  8.7  8.84202e-05
28  7.7  0.000185015
28  7.2  0.000265886
28  8.2  0.000128715
28  9.2  6.37173e-05
28  10.2  3.49618e-05
28  10.7  2.59871e-05
28  11.2  1.93221e-05
28  9.7  4.75605e-05
28  11.7  1.52587e-05
30  0.2  0.479981
30  0.7  0.748562
30  1.2  0.364319
30  2.2  0.0601199
30  1.7  0.147767
30  2.7  0.0261887
30  3.7  0.00649337
30  3.2  0.0126851
30  5.2  0.00120313
30  5.7  0.00070827
30  4.2  0.00356311
30  4.7  0.00200873
30  6.7  0.000313734
30  7.2  0.000205053
30  6.2  0.000475044
30  7.7  0.000142905
30  8.2  9.71993e-05
30  8.7  6.99209e-05
30  9.2  5.06496e-05
30  9.7  3.64873e-05
30  10.2  2.68489e-05
30  11.2  1.52987e-05
30  11.7  1.17473e-05
30  10.7  2.02542e-05
32  0.7  0.587941
32  0.2  0.416438
32  1.2  0.278174
32  1.7  0.105725
32  2.2  0.0433234
32  2.7  0.0193287
32  3.7  0.0045965
32  3.2  0.00904158
32  4.2  0.0025375
32  4.7  0.00145907
32  5.7  0.000511535
32  5.2  0.000862955
32  6.2  0.000338774
32  6.7  0.000221192
32  7.7  0.000101817
32  7.2  0.000147943
32  8.7  5.05446e-05
32  8.2  7.07989e-05
32  9.2  3.6248e-05
32  9.7  2.62293e-05
32  10.7  1.43522e-05
32  10.2  1.95991e-05
32  11.7  8.48379e-06
4  0.2  0.641648
32  11.2  1.09444e-05
4  0.7  1.27151
4  1.2  0.790341
4  1.7  0.351009
4  2.2  0.148664
4  3.2  0.0321756
4  2.7  0.0659048
4  3.7  0.0165954
4  4.7  0.00512693
4  4.2  0.00899226
4  5.2  0.00307222
4  5.7  0.00188539
4  7.2  0.00054015
4  6.2  0.00123002
4  7.7  0.000368104
4  6.7  0.000797849
4  8.7  0.00018186
4  8.2  0.000256896
4  9.2  0.000131294
4  10.2  7.04883e-05
4  9.7  9.5588e-05
4  11.2  3.93095e-05
4  10.7  5.29068e-05
6  0.2  0.622138
6  0.7  1.27427
4  11.7  3.08793e-05
6  1.2  0.780769
6  1.7  0.346098
6  2.7  0.0653063
6  2.2  0.146504
6  3.2  0.0317682
6  3.7  0.0164195
6  4.7  0.00505221
6  4.2  0.00885904
6  5.2  0.00302197
6  5.7  0.00188817
6  7.2  0.000533937
6  6.2  0.00120831
6  6.7  0.000794843
6  7.7  0.000366373
6  8.2  0.000260741
6  8.7  0.000180309
6  9.2  0.000129255
6  9.7  9.75616e-05
6  10.2  7.21244e-05
8  0.2  0.645742
6  10.7  5.3359e-05
6  11.2  3.97822e-05
8  0.7  1.28948
6  11.7  3.09372e-05
8  1.7  0.338349
8  1.2  0.784139
8  2.7  0.0650354
8  3.2  0.0315515
8  2.2  0.145175
8  3.7  0.0160302
8  4.7  0.00498334
8  5.2  0.00299582
8  4.2  0.00873576
8  6.2  0.00119043
8  5.7  0.00184789
8  6.7  0.000785044
8  7.2  0.00053073
8  7.7  0.000361027
8  8.2  0.000250626
8  8.7  0.000177591
8  9.7  9.34318e-05
8  9.2  0.000127753
8  10.2  6.96156e-05
8  11.7  3.02615e-05
8  10.7  5.19792e-05
8  11.2  3.92651e-05
0  0.4  1.06818
0  0.3  0.843689
0  0.6  1.28358
0  0.5  1.20666
0  0.9  1.14688
0  0.8  1.22971
0  1.0  1.0387
0  1.1  0.913261
0  1.4  0.586285
0  1.3  0.691356
0  1.6  0.418053
0  1.5  0.487456
0  1.8  0.288033
0  1.9  0.245867
0  2.0  0.209961
10  0.3  0.836528
10  0.4  1.04796
10  0.5  1.18394
10  0.6  1.25284
10  0.8  1.19947
10  0.9  1.12108
10  1.0  1.00565
10  1.1  0.893787
10  1.3  0.652264
10  1.4  0.562306
10  1.6  0.39774
10  1.5  0.474185
10  1.8  0.285406
10  1.9  0.236555
10  2.0  0.204444
12  0.3  0.835667
12  0.4  1.04863
12  0.5  1.18516
12  0.6  1.24547
12  0.8  1.17929
12  0.9  1.10629
12  1.1  0.877797
12  1.0  0.987542
12  1.3  0.649471
12  1.4  0.549988
12  1.5  0.468074
12  1.6  0.3911
12  1.8  0.278948
12  1.9  0.231371
12  2.0  0.195794
14  0.3  0.826724
14  0.4  1.03209
14  0.6  1.23099
14  0.5  1.1761
14  0.8  1.19031
14  0.9  1.08132
14  1.0  0.980687
14  1.1  0.854129
14  1.4  0.541387
14  1.3  0.634611
14  1.5  0.453003
14  1.6  0.388651
14  1.8  0.270624
14  1.9  0.226589
14  2.0  0.191409
16  0.3  0.817529
16  0.4  1.01686
16  0.5  1.15827
16  0.8  1.13851
16  0.6  1.21657
16  0.9  1.05642
16  1.0  0.943507
16  1.1  0.839855
16  1.3  0.621833
16  1.4  0.520339
16  1.5  0.440741
16  1.6  0.36999
16  1.8  0.263652
16  1.9  0.219283
16  2.0  0.186635
18  0.4  1.0097
18  0.3  0.807346
18  0.5  1.12386
18  0.6  1.19926
18  0.8  1.12298
18  0.9  1.0306
18  1.0  0.91716
18  1.3  0.591373
18  1.1  0.806804
18  1.4  0.510138
18  1.5  0.420634
18  1.6  0.355853
18  1.8  0.251123
18  1.9  0.209155
18  2.0  0.176623
2  0.4  1.0671
2  0.3  0.844745
2  0.5  1.19883
2  0.6  1.29405
2  0.8  1.2358
2  0.9  1.15566
2  1.0  1.03751
2  1.1  0.920196
2  1.3  0.685753
2  1.4  0.585556
2  1.6  0.421242
2  1.5  0.492092
2  1.8  0.296415
2  1.9  0.249756
2  2.0  0.209853
20  0.3  0.791588
20  0.4  0.99121
20  0.5  1.11872
20  0.8  1.08713
20  0.6  1.17005
20  0.9  0.994908
20  1.0  0.892228
20  1.1  0.772335
20  1.3  0.574406
20  1.5  0.411617
20  1.4  0.4852
20  1.8  0.235141
20  1.6  0.340453
20  1.9  0.202618
20  2.0  0.167715
22  0.3  0.780546
22  0.4  0.974389
22  0.5  1.08714
22  0.8  1.03902
22  0.6  1.11969
22  0.9  0.962268
22  1.0  0.845407
22  1.1  0.731379
22  1.3  0.534523
22  1.4  0.457308
22  1.5  0.386637
22  1.8  0.224535
22  1.6  0.319386
22  1.9  0.187195
22  2.0  0.158884
24  0.4  0.919161
24  0.3  0.758093
24  0.6  1.08191
24  0.5  1.05088
24  0.9  0.90717
24  0.8  0.984167
24  1.0  0.781103
24  1.1  0.683132
24  1.3  0.493779
24  1.4  0.419742
24  1.5  0.345871
24  1.6  0.294872
24  1.8  0.206155
24  1.9  0.171056
24  2.0  0.144292
26  0.3  0.741471
26  0.4  0.901941
26  0.5  0.989075
26  0.6  1.02086
26  0.8  0.913043
26  0.9  0.817605
26  1.0  0.726301
26  1.3  0.441281
26  1.1  0.623662
26  1.4  0.379046
26  1.5  0.313876
26  1.6  0.268827
26  1.8  0.182833
26  1.9  0.153692
26  2.0  0.127535
28  0.3  0.688516
28  0.4  0.836173
28  0.5  0.905641
28  0.6  0.922656
28  0.8  0.811906
28  0.9  0.724219
28  1.0  0.627781
28  1.1  0.541815
28  1.3  0.381181
28  1.4  0.330148
28  1.5  0.267906
28  1.6  0.223662
28  1.8  0.15554
28  1.9  0.129464
28  2.0  0.108653
30  0.3  0.635364
30  0.4  0.758067
30  0.5  0.810036
30  0.6  0.803421
30  0.9  0.602762
30  0.8  0.686323
30  1.0  0.534948
30  1.1  0.451795
30  1.3  0.309568
30  1.4  0.258979
30  1.5  0.214241
30  1.8  0.125612
30  1.6  0.178324
30  1.9  0.102589
30  2.0  0.0861842
32  0.3  0.553259
32  0.4  0.634683
32  0.5  0.672721
32  0.8  0.529069
32  0.6  0.645342
32  0.9  0.454025
32  1.0  0.388182
32  1.1  0.327389
32  1.4  0.189227
32  1.3  0.227388
32  1.5  0.155755
32  1.6  0.127068
32  1.9  0.0725655
32  1.8  0.0883087
32  2.0  0.0619164
4  0.3  0.845496
4  0.4  1.05634
4  0.5  1.21439
4  0.6  1.28647
4  0.8  1.23123
4  0.9  1.14509
4  1.1  0.917034
4  1.0  1.02247
4  1.3  0.690349
4  1.4  0.583711
4  1.5  0.492986
4  1.6  0.414314
4  1.8  0.292933
4  1.9  0.245776
4  2.0  0.206976
6  0.3  0.845599
6  0.4  1.06404
6  0.5  1.21302
6  0.8  1.21684
6  0.6  1.28156
6  0.9  1.1406
6  1.0  1.03319
6  1.1  0.907969
6  1.4  0.578484
6  1.3  0.681409
6  1.5  0.490146
6  1.6  0.413589
6  1.8  0.291623
6  1.9  0.243561
6  2.0  0.206705
