# diffractive D0 cross section, Pb target, KniehlKramer fragmentation, An0n channel
# dipole samples : data/Pb/mve/glauber_mve_<b>
# pD0 sweep      : 0.2 to 12.0 GeV, step 0.5
# fixed rapidity y : 3
# ============================================================
# b  pD0  dsigma_dyd2pD0
0  0.2  0.131665
0  0.7  0.103409
0  1.2  0.03251
0  2.2  0.00249245
0  1.7  0.0087589
0  2.7  0.000751355
0  3.2  0.000251681
0  3.7  9.49949e-05
0  4.2  3.73176e-05
0  5.2  6.56542e-06
0  4.7  1.57159e-05
0  5.7  3.00383e-06
0  6.2  1.42253e-06
0  6.7  6.98818e-07
0  7.2  3.38794e-07
0  7.7  1.74783e-07
0  8.2  8.96046e-08
0  8.7  4.92249e-08
0  9.2  2.62666e-08
0  9.7  1.40568e-08
0  10.2  7.96093e-09
0  10.7  4.47516e-09
0  11.2  2.54533e-09
0  11.7  1.51425e-09
10  0.2  0.130126
10  0.7  0.100509
10  1.2  0.0314227
10  1.7  0.00847255
10  2.2  0.00238271
10  2.7  0.000733083
10  3.7  9.02824e-05
10  3.2  0.000242992
10  4.7  1.48813e-05
10  4.2  3.57133e-05
10  5.2  6.53257e-06
10  5.7  2.90122e-06
10  6.2  1.33329e-06
10  6.7  6.61781e-07
10  7.7  1.69842e-07
10  7.2  3.31406e-07
10  8.2  8.81496e-08
10  8.7  4.50309e-08
10  9.2  2.50622e-08
10  9.7  1.3419e-08
10  10.2  7.56579e-09
10  10.7  4.2493e-09
10  11.2  2.46239e-09
10  11.7  1.39877e-09
12  0.2  0.128526
12  0.7  0.0995747
12  1.2  0.0306815
12  2.2  0.00230847
12  1.7  0.00814875
12  2.7  0.000702739
12  3.2  0.000238311
12  4.2  3.36771e-05
12  3.7  8.68846e-05
12  4.7  1.46233e-05
12  5.2  6.27901e-06
12  5.7  2.81945e-06
12  6.7  6.43028e-07
12  6.2  1.34526e-06
12  7.7  1.59661e-07
12  7.2  3.22634e-07
12  8.2  8.65719e-08
12  9.2  2.43247e-08
12  8.7  4.55375e-08
12  9.7  1.33626e-08
12  10.2  7.3805e-09
12  11.2  2.34382e-09
12  10.7  4.21344e-09
14  0.2  0.12804
12  11.7  1.37042e-09
14  0.7  0.0971291
14  1.2  0.0298001
14  2.2  0.00217644
14  1.7  0.00795187
14  2.7  0.000678163
14  3.2  0.000230981
14  3.7  8.3026e-05
14  4.2  3.40124e-05
14  4.7  1.40422e-05
14  5.7  2.75426e-06
14  5.2  6.06124e-06
14  6.7  6.29997e-07
14  6.2  1.31426e-06
14  7.7  1.56752e-07
14  7.2  3.13454e-07
14  8.2  8.26603e-08
14  8.7  4.43678e-08
14  9.7  1.33027e-08
14  9.2  2.36383e-08
14  10.2  7.22131e-09
14  10.7  4.09126e-09
14  11.2  2.27858e-09
14  11.7  1.29377e-09
16  0.2  0.125844
16  0.7  0.095926
16  1.2  0.0289083
16  1.7  0.00770607
16  2.2  0.00215575
16  3.2  0.000224269
16  2.7  0.000670434
16  3.7  8.18303e-05
16  4.2  3.17455e-05
16  4.7  1.33886e-05
16  5.2  5.91773e-06
16  5.7  2.648e-06
16  6.2  1.22196e-06
16  6.7  6.08615e-07
16  7.2  2.90578e-07
16  7.7  1.54738e-07
16  8.2  7.98952e-08
16  8.7  4.22069e-08
16  9.2  2.20256e-08
16  9.7  1.21699e-08
16  10.2  6.9086e-09
16  10.7  3.91375e-09
16  11.2  2.19705e-09
16  11.7  1.27862e-09
18  0.2  0.124227
18  0.7  0.0924758
18  1.2  0.0284463
18  2.2  0.0020401
18  1.7  0.00741416
18  2.7  0.000624568
18  3.2  0.00021244
18  3.7  7.97652e-05
18  4.2  3.00737e-05
18  4.7  1.24889e-05
18  6.2  1.23645e-06
18  5.2  5.59966e-06
18  5.7  2.57165e-06
18  6.7  5.75312e-07
18  7.2  2.77799e-07
18  7.7  1.48188e-07
18  8.2  7.82809e-08
18  8.7  4.00902e-08
18  9.7  1.20627e-08
18  9.2  2.1923e-08
18  10.2  6.46209e-09
18  10.7  3.70581e-09
18  11.2  2.10636e-09
2  0.2  0.132994
18  11.7  1.23083e-09
2  1.2  0.0324069
2  0.7  0.102583
2  2.2  0.00244757
2  1.7  0.00875987
2  2.7  0.000751563
2  3.7  9.30642e-05
2  3.2  0.000255727
2  4.2  3.71616e-05
2  4.7  1.57959e-05
2  5.2  6.48777e-06
2  5.7  2.98576e-06
2  6.2  1.3918e-06
2  6.7  6.89546e-07
2  7.7  1.77565e-07
2  7.2  3.50208e-07
2  8.2  9.00265e-08
2  8.7  4.81156e-08
2  9.2  2.53303e-08
2  9.7  1.40601e-08
2  10.2  8.00554e-09
2  10.7  4.46467e-09
2  11.7  1.49469e-09
2  11.2  2.58167e-09
20  0.2  0.12383
20  0.7  0.0903279
20  1.2  0.0266598
20  1.7  0.00698582
20  2.2  0.00193441
20  3.2  0.000200168
20  2.7  0.000593293
20  3.7  7.50888e-05
20  4.2  2.99008e-05
20  4.7  1.22166e-05
20  5.2  5.39618e-06
20  5.7  2.35734e-06
20  6.2  1.13725e-06
20  6.7  5.57023e-07
20  7.2  2.77426e-07
20  7.7  1.41195e-07
20  8.2  7.19796e-08
20  8.7  3.81573e-08
20  9.2  2.04082e-08
20  9.7  1.10521e-08
20  10.2  6.20206e-09
20  10.7  3.58365e-09
20  11.2  2.00519e-09
22  0.2  0.119838
20  11.7  1.12757e-09
22  0.7  0.0869265
22  1.2  0.0256437
22  1.7  0.00660057
22  2.2  0.00181592
22  2.7  0.000553382
22  3.2  0.000192001
22  3.7  7.12238e-05
22  4.2  2.70485e-05
22  5.2  4.8153e-06
22  4.7  1.13116e-05
22  5.7  2.25741e-06
22  6.2  1.07097e-06
22  6.7  5.19976e-07
22  7.7  1.23783e-07
22  7.2  2.55161e-07
22  8.2  6.7253e-08
22  8.7  3.54667e-08
22  9.2  1.88339e-08
22  9.7  1.06897e-08
22  10.2  5.7154e-09
22  10.7  3.21511e-09
22  11.2  1.89756e-09
22  11.7  1.05183e-09
24  0.2  0.114262
24  0.7  0.0806001
24  1.2  0.0232216
24  1.7  0.00599639
24  2.2  0.00163611
24  2.7  0.000509153
24  3.2  0.000173984
24  3.7  6.27184e-05
24  4.7  1.0442e-05
24  4.2  2.41804e-05
24  5.2  4.13222e-06
24  5.7  2.07461e-06
24  6.2  9.72323e-07
24  6.7  4.59887e-07
24  7.2  2.34067e-07
24  7.7  1.17987e-07
24  8.7  3.26117e-08
24  8.2  5.91411e-08
24  9.2  1.74355e-08
24  9.7  9.48267e-09
24  10.2  5.31485e-09
24  10.7  2.97907e-09
24  11.2  1.66559e-09
24  11.7  9.58651e-10
26  0.2  0.110773
26  0.7  0.0730756
26  1.7  0.00544108
26  1.2  0.0209648
26  2.2  0.00146992
26  2.7  0.000452402
26  3.2  0.000153735
26  4.2  2.14133e-05
26  3.7  5.56406e-05
26  4.7  8.7744e-06
26  5.2  3.79679e-06
26  6.2  8.13178e-07
26  5.7  1.83557e-06
26  6.7  4.08389e-07
26  7.7  9.87713e-08
26  7.2  2.03737e-07
26  8.2  5.35173e-08
26  8.7  2.7863e-08
26  9.2  1.48314e-08
26  9.7  8.45542e-09
26  10.2  4.65715e-09
26  10.7  2.61764e-09
26  11.2  1.47503e-09
26  11.7  8.65707e-10
28  0.2  0.102803
28  0.7  0.0657961
28  1.2  0.0185201
28  1.7  0.00457388
28  2.2  0.00123757
28  2.7  0.000381141
28  3.2  0.00012856
28  3.7  4.50975e-05
28  4.2  1.86746e-05
28  5.2  3.38185e-06
28  4.7  7.73005e-06
28  5.7  1.52348e-06
28  6.2  7.07593e-07
28  6.7  3.46853e-07
28  7.2  1.7047e-07
28  7.7  8.09022e-08
28  8.7  2.32723e-08
28  8.2  4.57981e-08
28  9.2  1.32758e-08
28  9.7  6.62031e-09
28  10.2  3.93189e-09
28  10.7  2.24332e-09
28  11.2  1.26615e-09
28  11.7  7.1209e-10
30  0.2  0.0928372
30  0.7  0.055494
30  1.2  0.0143913
30  1.7  0.00358311
30  2.2  0.000985631
30  3.2  0.000103989
30  2.7  0.000294829
30  3.7  3.65295e-05
30  4.2  1.40032e-05
30  4.7  5.87527e-06
30  5.2  2.44516e-06
30  5.7  1.1244e-06
30  6.2  5.48592e-07
30  6.7  2.67629e-07
30  7.2  1.31494e-07
30  7.7  6.83171e-08
30  8.2  3.53758e-08
30  8.7  1.81127e-08
30  9.2  1.01245e-08
30  9.7  5.53486e-09
30  10.7  1.67951e-09
30  10.2  3.05469e-09
30  11.2  1.01739e-09
30  11.7  5.70007e-10
32  0.2  0.0791932
32  0.7  0.0421416
32  1.2  0.0107615
32  2.2  0.000728323
32  1.7  0.00259022
32  2.7  0.000217074
32  3.2  7.38728e-05
32  4.2  1.02613e-05
32  3.7  2.63714e-05
32  4.7  4.28635e-06
32  5.2  1.76464e-06
32  5.7  8.17185e-07
32  6.2  3.90191e-07
32  7.2  9.52696e-08
32  6.7  1.89689e-07
32  7.7  4.73302e-08
32  8.2  2.45402e-08
32  8.7  1.33486e-08
32  9.2  7.07006e-09
32  9.7  3.94337e-09
32  10.2  2.17718e-09
32  10.7  1.21498e-09
32  11.2  7.14517e-10
4  0.2  0.130654
32  11.7  4.11719e-10
4  0.7  0.10039
4  1.2  0.0321017
4  1.7  0.0086125
4  2.2  0.00241502
4  2.7  0.000781376
4  3.7  9.37663e-05
4  3.2  0.000252781
4  4.2  3.63075e-05
4  4.7  1.56802e-05
4  5.2  6.75037e-06
4  5.7  3.00586e-06
4  6.2  1.39576e-06
4  6.7  6.75181e-07
4  7.2  3.34316e-07
4  7.7  1.74296e-07
4  8.2  9.10957e-08
4  8.7  4.97439e-08
4  9.2  2.56975e-08
4  9.7  1.40321e-08
4  10.2  7.92916e-09
4  10.7  4.48164e-09
4  11.2  2.49077e-09
4  11.7  1.46691e-09
6  0.2  0.13098
6  1.2  0.031718
6  0.7  0.103044
6  2.2  0.00241366
6  1.7  0.00852766
6  2.7  0.000759207
6  3.2  0.000247797
6  3.7  9.33859e-05
6  4.2  3.44287e-05
6  4.7  1.56329e-05
6  5.2  6.72268e-06
6  5.7  3.00527e-06
6  6.2  1.38422e-06
6  6.7  6.94265e-07
6  7.7  1.82744e-07
6  7.2  3.43385e-07
6  8.2  8.89884e-08
6  8.7  4.75552e-08
6  9.2  2.51945e-08
6  9.7  1.41152e-08
6  10.2  7.82316e-09
6  10.7  4.3821e-09
6  11.7  1.41892e-09
6  11.2  2.51411e-09
8  0.2  0.13038
8  1.2  0.0315543
8  0.7  0.101547
8  1.7  0.00845259
8  2.2  0.0023564
8  2.7  0.000735435
8  3.7  9.11669e-05
8  3.2  0.000246282
8  4.2  3.5253e-05
8  4.7  1.51829e-05
8  5.2  6.18875e-06
8  5.7  2.89749e-06
8  6.2  1.38813e-06
8  6.7  7.04192e-07
8  7.2  3.25899e-07
8  7.7  1.74315e-07
8  8.2  8.89215e-08
8  8.7  4.71226e-08
8  9.2  2.54531e-08
8  9.7  1.4073e-08
8  10.2  7.83105e-09
8  11.2  2.4808e-09
8  10.7  4.3443e-09
8  11.7  1.40493e-09
