# diffractive D0 cross section, Pb target, BCFY fragmentation, An0n channel
# dipole samples : data/Pb/mve/glauber_mve_<b>
# pD0 sweep      : 0.2 to 12.0 GeV, step 0.5
# fixed rapidity y : 0.5
# ============================================================
# b  pD0  dsigma_dyd2pD0
0  0.2  0.760297
0  1.2  0.983953
0  1.7  0.447077
0  0.7  1.54973
0  2.7  0.091346
0  2.2  0.19423
0  4.7  0.0078722
0  3.2  0.0451261
0  4.2  0.0134175
0  5.2  0.00483052
0  3.7  0.0239519
0  5.7  0.00313041
0  6.7  0.0013469
0  7.2  0.00090218
0  6.2  0.00200614
0  7.7  0.000653808
0  8.2  0.000470669
0  8.7  0.000343436
0  9.2  0.000244418
0  10.2  0.000138789
0  9.7  0.000182789
10  0.2  0.744551
0  10.7  0.000107218
0  11.2  8.29015e-05
10  0.7  1.49562
0  11.7  6.21122e-05
10  1.7  0.427604
10  2.7  0.0877741
10  1.2  0.952872
10  2.2  0.187764
10  3.7  0.0229358
10  4.2  0.0130187
10  3.2  0.04323
10  4.7  0.00764377
10  5.7  0.00291911
10  5.2  0.00456363
10  6.2  0.00196637
10  7.2  0.000898102
10  8.2  0.000451283
10  6.7  0.00131525
10  7.7  0.000614227
10  8.7  0.000325283
10  9.7  0.000173497
10  9.2  0.000232427
10  10.2  0.000134869
10  11.7  6.11012e-05
10  10.7  0.00010114
10  11.2  7.67542e-05
12  0.2  0.737408
12  1.7  0.417189
12  0.7  1.49745
12  1.2  0.934598
12  2.2  0.183562
12  2.7  0.085275
12  3.7  0.0220491
12  3.2  0.0421121
12  5.2  0.00458576
12  5.7  0.00287562
12  4.2  0.0125405
12  4.7  0.00742884
12  6.2  0.00189174
12  6.7  0.00122703
12  7.7  0.000604251
12  7.2  0.000883612
12  8.7  0.000319307
12  8.2  0.000427733
12  9.2  0.000228306
12  10.2  0.000129686
12  9.7  0.000174752
12  10.7  9.94183e-05
12  11.2  7.45112e-05
12  11.7  5.86117e-05
14  0.2  0.743465
14  1.2  0.904724
14  0.7  1.47715
14  1.7  0.408333
14  2.2  0.179228
14  2.7  0.082243
14  3.2  0.0410159
14  3.7  0.0218732
14  4.2  0.0121404
14  4.7  0.00717072
14  5.2  0.00443394
14  5.7  0.002833
14  6.2  0.00184842
14  6.7  0.00123558
14  7.2  0.000830023
14  7.7  0.00060587
14  8.2  0.000415739
14  9.2  0.000217877
14  8.7  0.000300294
14  10.2  0.000128184
14  11.2  7.28631e-05
14  9.7  0.000163993
14  11.7  5.59452e-05
14  10.7  9.40052e-05
16  0.7  1.45118
16  0.2  0.7229
16  1.7  0.393832
16  1.2  0.881278
16  2.2  0.171839
16  3.2  0.037735
16  2.7  0.079094
16  3.7  0.0208183
16  5.2  0.00422483
16  4.7  0.0069406
16  4.2  0.0115815
16  6.2  0.00177839
16  6.7  0.00116751
16  7.2  0.000807465
16  7.7  0.000577965
16  5.7  0.00268174
16  8.2  0.000400701
16  8.7  0.000300438
16  9.2  0.000220076
16  9.7  0.000159917
16  10.2  0.000120971
16  11.2  7.08825e-05
18  0.2  0.713735
16  11.7  5.39136e-05
16  10.7  9.16252e-05
18  0.7  1.41383
18  1.2  0.851755
18  3.2  0.0380379
18  2.2  0.165943
18  1.7  0.382198
18  2.7  0.0762664
18  3.7  0.0199796
18  4.7  0.0065582
18  4.2  0.011323
18  5.2  0.00395512
18  5.7  0.00254179
18  6.7  0.00110968
18  6.2  0.00168207
18  7.2  0.000776324
18  8.2  0.000394269
18  7.7  0.000541926
18  8.7  0.000279243
18  9.2  0.000209477
18  11.2  6.83956e-05
18  10.7  8.99007e-05
18  9.7  0.000155256
18  10.2  0.000113668
2  0.2  0.757329
2  1.2  0.988686
2  0.7  1.54069
18  11.7  5.31314e-05
2  1.7  0.444158
2  2.7  0.0911878
2  3.2  0.0444818
2  2.2  0.196459
2  3.7  0.0242759
2  4.2  0.0135748
2  5.2  0.00482686
2  5.7  0.00303648
2  4.7  0.00777923
2  7.2  0.000926412
2  6.2  0.00199419
2  6.7  0.00133674
2  7.7  0.000645022
2  8.7  0.000335908
2  8.2  0.000474753
2  9.7  0.000188341
2  9.2  0.000245001
2  10.7  0.000104141
2  10.2  0.000137614
20  0.2  0.700816
2  11.7  6.21935e-05
20  0.7  1.37522
2  11.2  8.04201e-05
20  1.2  0.812314
20  1.7  0.36164
20  3.2  0.0357788
20  2.2  0.157347
20  3.7  0.0189517
20  2.7  0.0722183
20  4.7  0.00635584
20  5.7  0.00240956
20  4.2  0.0105675
20  5.2  0.00377189
20  6.7  0.0010588
20  7.7  0.000506615
20  6.2  0.00158604
20  8.2  0.000360002
20  7.2  0.000745548
20  8.7  0.000261834
20  10.2  0.000111081
20  9.2  0.000199562
20  9.7  0.000147793
20  11.2  6.46646e-05
20  10.7  8.42123e-05
22  0.2  0.687218
22  0.7  1.32046
20  11.7  5.01036e-05
22  1.2  0.779815
22  1.7  0.338947
22  3.2  0.0334213
22  2.2  0.146643
22  3.7  0.0177792
22  2.7  0.0669453
22  4.7  0.00574154
22  4.2  0.00981347
22  5.7  0.00230177
22  5.2  0.00354121
22  6.2  0.00147158
22  6.7  0.000989849
22  7.7  0.000474313
22  8.2  0.000342105
22  7.2  0.00067266
22  8.7  0.000242954
22  10.2  0.000103159
22  9.2  0.000178492
22  9.7  0.000136012
22  10.7  7.69033e-05
24  0.2  0.666224
22  11.2  5.82992e-05
24  0.7  1.26646
22  11.7  4.66812e-05
24  1.2  0.724016
24  2.7  0.0611771
24  1.7  0.313796
24  2.2  0.133648
24  3.2  0.0304762
24  3.7  0.0160592
24  4.7  0.00533579
24  4.2  0.00889654
24  5.7  0.00203986
24  5.2  0.00323329
24  6.2  0.00135926
24  7.2  0.000612504
24  6.7  0.000894618
24  7.7  0.000428481
24  8.2  0.00030361
24  9.7  0.000123076
24  8.7  0.000221704
24  9.2  0.000166374
24  10.7  7.04492e-05
24  10.2  9.07806e-05
24  11.2  5.48411e-05
26  0.7  1.16603
26  0.2  0.638312
24  11.7  4.18141e-05
26  1.2  0.649197
26  1.7  0.277478
26  3.2  0.0266169
26  2.2  0.118459
26  2.7  0.0544586
26  3.7  0.0139026
26  4.2  0.00790711
26  5.2  0.00282929
26  4.7  0.00468114
26  5.7  0.00180552
26  7.2  0.000542589
26  6.2  0.00118879
26  6.7  0.000786147
26  8.2  0.000277256
26  7.7  0.000376734
26  8.7  0.000194502
26  9.2  0.000142817
26  10.2  8.06758e-05
26  9.7  0.000107246
26  10.7  6.1366e-05
28  0.2  0.603218
28  0.7  1.04905
26  11.2  4.64159e-05
28  1.2  0.559777
26  11.7  3.66519e-05
28  1.7  0.235934
28  2.2  0.0989512
28  3.7  0.0118308
28  2.7  0.0457124
28  3.2  0.0224577
28  4.2  0.00656209
28  4.7  0.00393257
28  5.7  0.0015063
28  5.2  0.00239603
28  6.2  0.000997413
28  7.2  0.000445293
28  6.7  0.000666387
28  7.7  0.000323711
28  8.7  0.000163273
28  9.7  9.09559e-05
28  8.2  0.000228121
28  9.2  0.000117628
28  10.7  5.14128e-05
28  11.2  4.0003e-05
28  10.2  6.65324e-05
28  11.7  3.04304e-05
30  1.2  0.457039
30  0.2  0.55907
30  0.7  0.915185
30  2.2  0.0791244
30  1.7  0.18697
30  3.2  0.0177281
30  2.7  0.0360194
30  4.2  0.00516267
30  3.7  0.00950847
30  4.7  0.00309278
30  5.2  0.00186763
30  6.2  0.000770451
30  5.7  0.00119812
30  6.7  0.000517123
30  7.7  0.000251121
30  7.2  0.000361013
30  8.2  0.000183938
30  8.7  0.0001297
30  10.2  5.34786e-05
30  9.2  9.42831e-05
30  10.7  3.96584e-05
30  9.7  6.98924e-05
30  11.2  3.0606e-05
32  0.2  0.497101
32  0.7  0.707622
30  11.7  2.37064e-05
32  1.7  0.135971
32  1.2  0.341308
32  2.2  0.0577284
32  2.7  0.0257525
32  3.7  0.00676452
32  3.2  0.0130632
32  4.2  0.0037866
32  5.2  0.00134744
32  4.7  0.00221657
32  6.2  0.000555854
32  5.7  0.000862468
32  7.2  0.000254561
32  6.7  0.000372371
32  7.7  0.000177242
32  8.7  9.15789e-05
32  8.2  0.000126829
32  9.2  6.70216e-05
32  9.7  5.04408e-05
32  10.2  3.79127e-05
32  10.7  2.90975e-05
32  11.2  2.16492e-05
4  0.7  1.52331
4  0.2  0.750175
32  11.7  1.7171e-05
4  1.7  0.443989
4  2.2  0.194925
4  1.2  0.969395
4  2.7  0.0912
4  3.7  0.0236946
4  3.2  0.0449116
4  4.2  0.01346
4  5.7  0.00304728
4  6.7  0.00133521
4  4.7  0.00790647
4  5.2  0.00476914
4  8.2  0.000468683
4  6.2  0.00204476
4  7.2  0.000913254
4  8.7  0.000331861
4  7.7  0.000645246
4  10.2  0.000135313
4  9.7  0.000180585
4  9.2  0.000243014
6  0.2  0.75016
6  0.7  1.52243
4  10.7  0.00010408
4  11.2  8.22715e-05
4  11.7  6.34601e-05
6  1.2  0.963979
6  1.7  0.433962
6  2.7  0.089727
6  3.2  0.0447743
6  2.2  0.191643
6  5.2  0.00472743
6  3.7  0.0236247
6  4.7  0.0077133
6  4.2  0.0131642
6  6.2  0.00201531
6  5.7  0.00301957
6  6.7  0.00135815
6  7.2  0.000913754
6  7.7  0.00065143
6  8.2  0.00045909
6  8.7  0.000326363
6  9.7  0.00017901
6  10.2  0.000135269
6  9.2  0.000242934
8  0.7  1.51262
6  10.7  0.000103863
6  11.2  8.16294e-05
8  1.2  0.976848
8  0.2  0.747094
6  11.7  6.33081e-05
8  2.2  0.190948
8  1.7  0.431352
8  2.7  0.0882587
8  3.2  0.0437988
8  3.7  0.0231536
8  4.7  0.00744261
8  5.7  0.00299056
8  4.2  0.0131202
8  5.2  0.00478031
8  6.7  0.00130812
8  7.7  0.000629896
8  6.2  0.00197008
8  7.2  0.000922644
8  8.2  0.000451179
8  10.7  0.000102697
8  9.2  0.000238047
8  8.7  0.000323881
8  9.7  0.000176563
8  11.7  6.20632e-05
8  10.2  0.00013313
8  11.2  7.82643e-05
