# diffractive D0 cross section, Pb target, KniehlKramer fragmentation, An0n channel
# dipole samples : data/Pb/mve/glauber_mve_<b>
# pD0 sweep      : 0.2 to 12.0 GeV, step 0.5
# fixed rapidity y : 1
# ============================================================
# b  pD0  dsigma_dyd2pD0
0  0.2  1.00291
0  0.7  0.937941
0  1.2  0.401667
0  1.7  0.145805
0  2.2  0.0566696
0  2.7  0.0241286
0  3.2  0.0113685
0  4.2  0.00305313
0  3.7  0.00559148
0  4.7  0.00167169
0  5.2  0.00101473
0  5.7  0.000620452
0  6.7  0.000240466
0  6.2  0.000379818
0  7.2  0.000164951
0  8.2  7.90935e-05
0  7.7  0.000114701
0  8.7  5.50939e-05
0  9.2  3.94301e-05
0  9.7  2.86468e-05
0  10.2  2.12668e-05
0  10.7  1.53663e-05
0  11.2  1.18041e-05
10  0.2  0.991214
0  11.7  8.6747e-06
10  0.7  0.905417
10  1.2  0.382388
10  1.7  0.139734
10  2.2  0.053894
10  2.7  0.0235074
10  3.7  0.00531265
10  3.2  0.0106352
10  4.2  0.00287536
10  5.2  0.000945354
10  4.7  0.0016201
10  5.7  0.000585421
10  6.2  0.000371739
10  7.2  0.000155306
10  6.7  0.000243921
10  7.7  0.000108194
10  8.2  7.59226e-05
10  8.7  5.1626e-05
10  9.2  3.73933e-05
10  9.7  2.70627e-05
10  10.2  1.99978e-05
10  10.7  1.45811e-05
10  11.2  1.1423e-05
12  0.2  0.984351
10  11.7  8.34097e-06
12  0.7  0.901671
12  1.2  0.379576
12  1.7  0.13724
12  2.2  0.0530107
12  2.7  0.0226014
12  3.2  0.010469
12  4.2  0.00284823
12  3.7  0.0052024
12  4.7  0.0015848
12  5.2  0.000937122
12  5.7  0.000571005
12  6.2  0.000362822
12  6.7  0.000238128
12  7.2  0.000155392
12  7.7  0.000105993
12  8.2  7.28773e-05
12  8.7  5.15664e-05
12  9.2  3.65814e-05
12  9.7  2.73846e-05
12  10.2  1.94589e-05
12  10.7  1.44037e-05
12  11.2  1.05931e-05
14  0.2  0.978873
12  11.7  8.42482e-06
14  1.2  0.36838
14  0.7  0.882986
14  2.2  0.0510513
14  1.7  0.134243
14  2.7  0.0220946
14  3.2  0.0101474
14  3.7  0.00505576
14  4.7  0.0015536
14  4.2  0.00271561
14  5.2  0.000912701
14  5.7  0.000534009
14  6.2  0.000356467
14  6.7  0.000229427
14  7.2  0.000152492
14  7.7  0.000100366
14  8.2  7.08676e-05
14  8.7  5.15563e-05
14  9.2  3.47394e-05
14  9.7  2.55542e-05
14  10.2  1.92337e-05
14  10.7  1.38086e-05
14  11.2  1.06189e-05
14  11.7  7.94301e-06
16  0.2  0.956221
16  1.2  0.355374
16  0.7  0.871121
16  1.7  0.128987
16  2.2  0.0493566
16  2.7  0.0211764
16  3.2  0.00988288
16  3.7  0.00490099
16  4.2  0.00260653
16  4.7  0.00150426
16  5.2  0.000879086
16  5.7  0.000540226
16  6.2  0.000343129
16  6.7  0.000221719
16  7.7  9.76664e-05
16  7.2  0.000145278
16  8.2  6.83773e-05
16  8.7  4.8686e-05
16  9.2  3.39704e-05
16  9.7  2.49445e-05
16  10.2  1.79605e-05
16  10.7  1.38518e-05
16  11.2  1.0209e-05
18  0.2  0.941845
16  11.7  7.57094e-06
18  0.7  0.835525
18  1.7  0.126229
18  1.2  0.346284
18  2.2  0.047549
18  3.2  0.00951653
18  2.7  0.0202815
18  3.7  0.00457164
18  4.2  0.00251146
18  4.7  0.00143987
18  5.2  0.000844304
18  5.7  0.000521251
18  6.2  0.000319168
18  6.7  0.000208659
18  7.2  0.000138478
18  7.7  9.48174e-05
18  8.2  6.58445e-05
18  8.7  4.59376e-05
18  9.7  2.42046e-05
18  9.2  3.2698e-05
18  10.2  1.72206e-05
18  10.7  1.31437e-05
18  11.2  9.84722e-06
18  11.7  7.4001e-06
2  0.2  1.01033
2  0.7  0.927384
2  1.2  0.400503
2  1.7  0.145519
2  2.2  0.0574539
2  2.7  0.0242656
2  3.2  0.0111335
2  3.7  0.00563006
2  4.2  0.00298994
2  5.2  0.0010008
2  4.7  0.00170895
2  5.7  0.000618444
2  6.2  0.000384462
2  6.7  0.00025323
2  7.2  0.000165747
2  7.7  0.000114118
2  8.2  7.60083e-05
2  8.7  5.54751e-05
2  9.7  2.91249e-05
2  9.2  3.93521e-05
2  10.2  2.06715e-05
2  10.7  1.58342e-05
2  11.2  1.1609e-05
20  0.2  0.919453
2  11.7  8.92334e-06
20  0.7  0.814441
20  1.7  0.116308
20  1.2  0.326799
20  2.2  0.0447958
20  2.7  0.0191012
20  3.2  0.00891146
20  3.7  0.00445588
20  4.7  0.00131192
20  4.2  0.00237508
20  5.2  0.000788023
20  5.7  0.000471454
20  6.2  0.000309285
20  6.7  0.000195342
20  8.2  6.08948e-05
20  7.7  8.90702e-05
20  7.2  0.000131676
20  9.2  3.02038e-05
20  8.7  4.37544e-05
20  9.7  2.26616e-05
20  10.2  1.64658e-05
20  10.7  1.22497e-05
20  11.2  8.99538e-06
20  11.7  6.85343e-06
22  0.2  0.891369
22  0.7  0.766758
22  1.2  0.30675
22  1.7  0.11098
22  2.2  0.042515
22  2.7  0.0176765
22  3.2  0.00812353
22  3.7  0.0040956
22  4.2  0.0022505
22  4.7  0.00126911
22  5.2  0.000736503
22  6.2  0.000284445
22  5.7  0.00044745
22  6.7  0.000179909
22  7.2  0.000124088
22  7.7  8.10574e-05
22  8.2  5.82826e-05
22  8.7  4.02947e-05
22  9.2  2.87031e-05
22  9.7  2.09054e-05
22  10.2  1.54321e-05
22  10.7  1.12995e-05
22  11.2  8.61019e-06
24  0.2  0.882736
22  11.7  6.354e-06
24  0.7  0.735948
24  1.2  0.286615
24  1.7  0.100727
24  2.2  0.0386282
24  3.2  0.007562
24  2.7  0.0161118
24  3.7  0.00374962
24  4.7  0.00113718
24  4.2  0.00200273
24  5.2  0.000653172
24  5.7  0.000404539
24  6.7  0.000163106
24  6.2  0.000249422
24  7.7  7.61917e-05
24  7.2  0.000110765
24  8.2  5.13559e-05
24  8.7  3.77928e-05
24  9.2  2.66091e-05
24  9.7  1.90986e-05
24  10.2  1.38276e-05
24  10.7  1.01908e-05
26  0.2  0.82954
24  11.2  7.71974e-06
24  11.7  5.78299e-06
26  0.7  0.671498
26  1.2  0.25341
26  1.7  0.0895116
26  2.2  0.0340318
26  2.7  0.0141083
26  3.2  0.00660333
26  3.7  0.00337508
26  4.2  0.00178941
26  4.7  0.000977996
26  5.2  0.000567337
26  6.2  0.0002251
26  5.7  0.000363836
26  6.7  0.000148415
26  7.2  9.91188e-05
26  7.7  6.66688e-05
26  8.2  4.63996e-05
26  8.7  3.23338e-05
26  9.2  2.28951e-05
26  9.7  1.65955e-05
26  10.2  1.21599e-05
26  10.7  9.05911e-06
26  11.2  6.75973e-06
26  11.7  5.03568e-06
28  0.2  0.756646
28  0.7  0.595361
28  1.2  0.217934
28  1.7  0.0765074
28  2.2  0.0286582
28  3.2  0.00561994
28  2.7  0.012021
28  3.7  0.00274234
28  4.7  0.000831511
28  4.2  0.00149679
28  5.2  0.000496652
28  5.7  0.000304668
28  6.2  0.00019383
28  6.7  0.000124481
28  7.2  8.18638e-05
28  7.7  5.59009e-05
28  8.2  3.8302e-05
28  8.7  2.71529e-05
28  9.2  1.92387e-05
28  9.7  1.38963e-05
28  10.2  1.01538e-05
28  11.2  5.65291e-06
28  10.7  7.54745e-06
28  11.7  4.27983e-06
30  0.2  0.67436
30  0.7  0.488268
30  1.2  0.177378
30  1.7  0.0591662
30  2.2  0.0221292
30  2.7  0.00967226
30  3.2  0.00445301
30  3.7  0.00219822
30  4.2  0.00113486
30  4.7  0.000651324
30  5.2  0.000393581
30  5.7  0.000235813
30  6.2  0.000150527
30  6.7  9.70723e-05
30  7.2  6.4438e-05
30  7.7  4.27494e-05
30  8.2  2.99428e-05
30  8.7  2.09073e-05
30  9.2  1.5007e-05
30  9.7  1.08205e-05
30  10.2  7.90354e-06
30  11.2  4.52494e-06
30  10.7  5.92011e-06
32  0.2  0.588037
30  11.7  3.35927e-06
32  0.7  0.374461
32  1.2  0.129691
32  1.7  0.0422268
32  2.2  0.0164118
32  2.7  0.00686274
32  3.2  0.00313249
32  3.7  0.00154544
32  4.2  0.000852279
32  4.7  0.000462198
32  5.2  0.000279815
32  5.7  0.000168805
32  6.2  0.00010702
32  6.7  6.92388e-05
32  7.2  4.51629e-05
32  7.7  3.13075e-05
32  8.2  2.12744e-05
32  8.7  1.48586e-05
32  9.2  1.05659e-05
32  9.7  7.82154e-06
32  10.2  5.65203e-06
32  10.7  4.15556e-06
4  0.2  1.00696
32  11.2  3.118e-06
32  11.7  2.4425e-06
4  1.2  0.3966
4  0.7  0.930306
4  1.7  0.144083
4  2.2  0.0557145
4  2.7  0.0241001
4  3.2  0.0112071
4  3.7  0.00560341
4  4.2  0.00288866
4  4.7  0.00169717
4  5.7  0.000591919
4  5.2  0.000987989
4  6.7  0.000253249
4  6.2  0.000386315
4  7.2  0.000167276
4  7.7  0.000112649
4  8.2  7.61159e-05
4  8.7  5.65226e-05
4  9.2  3.88267e-05
4  9.7  2.84903e-05
4  10.2  2.13416e-05
4  10.7  1.55656e-05
4  11.2  1.17988e-05
4  11.7  8.57567e-06
6  0.2  0.995112
6  0.7  0.922692
6  1.2  0.392301
6  1.7  0.144467
6  2.2  0.0559451
6  3.2  0.0109952
6  2.7  0.0238872
6  3.7  0.0055658
6  4.2  0.00295739
6  4.7  0.00167863
6  5.2  0.000974865
6  5.7  0.000599479
6  6.2  0.000384398
6  6.7  0.000250314
6  7.2  0.000164162
6  8.2  7.66025e-05
6  7.7  0.000111583
6  8.7  5.39369e-05
6  9.2  3.85314e-05
6  9.7  2.81861e-05
6  10.7  1.52107e-05
6  10.2  2.04552e-05
6  11.2  1.16376e-05
6  11.7  8.50512e-06
8  0.2  0.988658
8  0.7  0.91935
8  1.2  0.391058
8  1.7  0.14174
8  2.2  0.054989
8  3.2  0.0108448
8  2.7  0.0236133
8  4.2  0.00297666
8  3.7  0.00545603
8  4.7  0.00164809
8  5.2  0.000978851
8  5.7  0.000598021
8  6.2  0.000379961
8  6.7  0.000244489
8  7.2  0.000164434
8  8.2  7.32437e-05
8  7.7  0.000110117
8  8.7  5.40718e-05
8  9.2  3.84103e-05
8  9.7  2.80612e-05
8  10.7  1.53797e-05
8  10.2  2.09403e-05
8  11.7  8.5141e-06
8  11.2  1.16083e-05
