# diffractive D0 cross section, Pb target, KniehlKramer fragmentation, An0n channel
# dipole samples : data/Pb/mve/glauber_mve_<b>
# pD0 sweep      : 0.2 to 12.0 GeV, step 0.5
# fixed rapidity y : 4
# ============================================================
# b  pD0  dsigma_dyd2pD0
0  0.2  0.0102165
0  0.7  0.0063156
0  1.2  0.00135151
0  1.7  0.000236795
0  2.2  4.04885e-05
0  2.7  7.61671e-06
0  3.2  1.54836e-06
0  3.7  3.46606e-07
0  4.7  2.01906e-08
0  4.2  8.16946e-08
0  5.2  5.32282e-09
0  5.7  1.43384e-09
0  6.2  4.05464e-10
0  6.7  1.22869e-10
0  7.2  3.75382e-11
0  7.7  1.07032e-11
0  8.2  3.64034e-12
0  8.7  1.17187e-12
0  9.2  3.82974e-13
0  9.7  1.27227e-13
0  10.2  4.25374e-14
0  10.7  1.45256e-14
0  11.7  1.84454e-15
10  0.2  0.0101226
0  11.2  5.22575e-15
10  0.7  0.00607927
10  1.2  0.00132828
10  1.7  0.000219438
10  2.2  3.86509e-05
10  2.7  7.22738e-06
10  3.2  1.47129e-06
10  3.7  3.28445e-07
10  4.2  7.64875e-08
10  4.7  1.91971e-08
10  5.2  4.91244e-09
10  5.7  1.35249e-09
10  6.2  3.82798e-10
10  6.7  1.07571e-10
10  7.2  3.3307e-11
10  7.7  1.08595e-11
10  8.2  3.21348e-12
10  9.2  3.61646e-13
10  8.7  1.11626e-12
10  9.7  1.18533e-13
10  10.2  4.15918e-14
10  10.7  1.44191e-14
10  11.7  1.78675e-15
10  11.2  4.97567e-15
12  0.2  0.0100596
12  0.7  0.00606396
12  1.2  0.00128125
12  1.7  0.000216546
12  2.2  3.81335e-05
12  2.7  7.11534e-06
12  3.2  1.40595e-06
12  3.7  3.23821e-07
12  4.2  7.32725e-08
12  5.2  4.91827e-09
12  4.7  1.87409e-08
12  5.7  1.32832e-09
12  6.2  3.79465e-10
12  6.7  1.146e-10
12  7.2  3.40933e-11
12  8.2  3.13395e-12
12  7.7  1.05927e-11
12  8.7  1.0254e-12
12  9.2  3.54605e-13
12  9.7  1.20456e-13
12  10.2  4.05564e-14
12  10.7  1.3419e-14
12  11.2  4.88412e-15
14  0.2  0.0100362
12  11.7  1.71492e-15
14  0.7  0.00598146
14  1.2  0.0012739
14  1.7  0.000210383
14  2.2  3.6184e-05
14  2.7  6.94855e-06
14  3.2  1.4119e-06
14  3.7  3.05637e-07
14  4.2  7.06002e-08
14  4.7  1.79261e-08
14  5.2  4.73712e-09
14  5.7  1.26743e-09
14  6.2  3.62375e-10
14  6.7  1.08587e-10
14  7.2  3.15147e-11
14  7.7  1.02571e-11
14  8.2  3.31867e-12
14  8.7  9.90704e-13
14  9.2  3.45813e-13
14  9.7  1.1466e-13
14  10.2  3.91157e-14
14  10.7  1.36215e-14
14  11.2  4.52656e-15
14  11.7  1.63093e-15
16  0.2  0.00983094
16  0.7  0.00583511
16  1.2  0.00123336
16  1.7  0.000206045
16  2.2  3.58302e-05
16  2.7  6.68723e-06
16  3.2  1.32579e-06
16  3.7  2.9846e-07
16  4.2  6.92067e-08
16  5.2  4.44432e-09
16  4.7  1.7594e-08
16  6.2  3.56493e-10
16  5.7  1.25624e-09
16  6.7  1.06543e-10
16  7.2  3.17588e-11
16  7.7  9.70177e-12
16  8.2  3.12146e-12
16  8.7  1.01375e-12
16  9.2  3.25673e-13
16  9.7  1.11748e-13
16  10.2  3.82215e-14
16  10.7  1.30817e-14
16  11.2  4.58398e-15
18  0.2  0.00975582
16  11.7  1.62593e-15
18  0.7  0.00567528
18  1.2  0.00118585
18  1.7  0.00019699
18  2.2  3.38324e-05
18  2.7  6.34373e-06
18  3.2  1.30193e-06
18  3.7  2.92896e-07
18  4.2  6.69274e-08
18  4.7  1.70582e-08
18  5.2  4.34754e-09
18  5.7  1.1956e-09
18  6.2  3.41062e-10
18  6.7  1.00431e-10
18  7.2  2.96328e-11
18  7.7  9.00242e-12
18  8.2  2.89289e-12
18  9.2  3.06699e-13
18  8.7  9.80335e-13
18  9.7  1.01487e-13
18  10.2  3.43711e-14
18  10.7  1.24543e-14
18  11.2  4.19189e-15
18  11.7  1.57414e-15
2  0.2  0.0101988
2  0.7  0.00629842
2  1.7  0.000234673
2  1.2  0.00134659
2  2.2  4.08137e-05
2  2.7  7.59375e-06
2  3.2  1.53214e-06
2  3.7  3.4121e-07
2  4.7  2.03129e-08
2  4.2  7.93115e-08
2  5.2  5.17237e-09
2  5.7  1.41515e-09
2  6.2  4.05924e-10
2  6.7  1.17323e-10
2  7.2  3.49077e-11
2  7.7  1.12794e-11
2  8.2  3.49857e-12
2  9.2  3.73868e-13
2  8.7  1.14128e-12
2  9.7  1.29224e-13
2  10.2  4.37757e-14
2  10.7  1.50219e-14
2  11.2  5.08353e-15
2  11.7  1.78757e-15
20  0.2  0.00958642
20  0.7  0.00557694
20  1.2  0.00112287
20  1.7  0.000188575
20  2.2  3.2547e-05
20  2.7  5.94175e-06
20  3.2  1.24924e-06
20  4.2  6.04774e-08
20  3.7  2.70911e-07
20  4.7  1.56676e-08
20  5.2  4.15399e-09
20  5.7  1.11019e-09
20  6.2  3.3209e-10
20  6.7  9.5031e-11
20  7.2  2.7325e-11
20  7.7  8.50349e-12
20  8.7  9.14574e-13
20  9.2  3.00746e-13
20  8.2  2.85191e-12
20  9.7  1.00743e-13
20  10.7  1.17395e-14
20  10.2  3.40178e-14
20  11.2  4.1348e-15
22  0.2  0.0094875
20  11.7  1.46916e-15
22  0.7  0.00531511
22  1.2  0.00106667
22  2.2  2.99891e-05
22  1.7  0.000174675
22  2.7  5.55612e-06
22  3.2  1.14391e-06
22  3.7  2.48068e-07
22  4.2  5.71157e-08
22  4.7  1.42757e-08
22  5.2  3.73969e-09
22  5.7  1.05577e-09
22  6.7  8.62208e-11
22  6.2  3.05169e-10
22  7.7  8.19626e-12
22  7.2  2.59458e-11
22  8.2  2.48078e-12
22  8.7  8.50609e-13
22  9.7  9.40111e-14
22  9.2  2.81302e-13
22  10.2  3.17159e-14
22  11.2  3.73263e-15
22  10.7  1.10813e-14
22  11.7  1.32125e-15
24  0.2  0.00906745
24  0.7  0.00506364
24  1.2  0.000985864
24  1.7  0.00016161
24  2.2  2.78249e-05
24  2.7  5.14222e-06
24  3.2  1.0101e-06
24  3.7  2.27004e-07
24  4.7  1.33852e-08
24  4.2  5.33463e-08
24  5.2  3.46275e-09
24  5.7  9.43804e-10
24  6.2  2.67774e-10
24  6.7  7.75717e-11
24  7.2  2.41346e-11
24  7.7  7.1814e-12
24  8.2  2.27388e-12
24  8.7  7.77056e-13
24  9.2  2.38252e-13
24  9.7  8.04548e-14
24  10.2  2.91922e-14
24  10.7  1.00837e-14
24  11.2  3.57714e-15
26  0.2  0.0087581
24  11.7  1.24426e-15
26  0.7  0.0046221
26  1.2  0.000886652
26  1.7  0.000143041
26  2.2  2.41439e-05
26  2.7  4.48469e-06
26  3.2  9.24632e-07
26  3.7  1.91803e-07
26  4.2  4.47125e-08
26  4.7  1.19271e-08
26  5.2  3.19303e-09
26  5.7  8.04137e-10
26  6.2  2.37851e-10
26  6.7  7.04226e-11
26  7.2  2.11363e-11
26  8.2  1.97933e-12
26  7.7  6.30209e-12
26  8.7  6.66237e-13
26  9.2  2.23085e-13
26  9.7  7.4852e-14
26  10.2  2.53966e-14
26  10.7  8.80006e-15
26  11.2  3.08405e-15
28  0.2  0.00840186
26  11.7  1.07828e-15
28  0.7  0.0040947
28  1.2  0.000771634
28  1.7  0.00012106
28  2.7  3.74069e-06
28  2.2  2.07412e-05
28  3.2  7.7103e-07
28  3.7  1.57867e-07
28  4.2  3.99993e-08
28  4.7  9.89061e-09
28  5.2  2.60426e-09
28  5.7  7.02354e-10
28  6.2  1.89633e-10
28  7.2  1.73882e-11
28  6.7  5.98199e-11
28  7.7  5.30572e-12
28  8.2  1.7161e-12
28  9.2  1.85364e-13
28  8.7  5.60387e-13
28  9.7  6.33582e-14
28  10.2  2.11818e-14
28  10.7  7.23619e-15
28  11.7  9.09365e-16
28  11.2  2.58333e-15
30  0.2  0.00755944
30  0.7  0.00345921
30  1.7  9.76861e-05
30  1.2  0.000619815
30  2.2  1.67344e-05
30  2.7  2.99824e-06
30  3.2  6.1516e-07
30  4.2  2.91835e-08
30  3.7  1.36431e-07
30  4.7  7.63943e-09
30  5.2  2.06176e-09
30  6.2  1.49953e-10
30  5.7  5.52167e-10
30  7.2  1.3835e-11
30  6.7  4.36039e-11
30  7.7  4.21873e-12
30  8.2  1.30819e-12
30  8.7  4.20296e-13
30  9.2  1.44789e-13
30  9.7  4.87916e-14
30  10.2  1.66151e-14
30  10.7  5.76479e-15
30  11.2  1.97287e-15
32  0.2  0.00674909
30  11.7  7.1198e-16
32  1.2  0.000452095
32  0.7  0.00266299
32  1.7  6.89699e-05
32  2.2  1.15991e-05
32  2.7  2.17836e-06
32  3.2  4.19541e-07
32  3.7  9.32902e-08
32  4.2  2.22487e-08
32  4.7  5.52341e-09
32  5.2  1.45018e-09
32  5.7  3.76913e-10
32  6.2  1.09591e-10
32  6.7  3.17785e-11
32  7.2  9.5619e-12
32  7.7  2.98441e-12
32  8.2  9.35126e-13
32  8.7  3.08956e-13
32  9.2  1.01703e-13
32  9.7  3.46311e-14
32  10.2  1.16462e-14
32  10.7  4.0156e-15
32  11.2  1.40019e-15
32  11.7  5.1143e-16
4  0.2  0.0102649
4  0.7  0.00625512
4  1.2  0.00134424
4  1.7  0.000236603
4  2.2  4.06172e-05
4  2.7  7.59332e-06
4  3.2  1.54677e-06
4  3.7  3.39722e-07
4  4.2  8.10441e-08
4  4.7  1.97143e-08
4  5.2  5.12768e-09
4  5.7  1.39145e-09
4  6.2  3.98771e-10
4  6.7  1.15499e-10
4  7.7  1.11676e-11
4  7.2  3.66773e-11
4  8.2  3.6058e-12
4  8.7  1.17014e-12
4  9.2  3.82595e-13
4  9.7  1.20933e-13
4  10.2  4.27604e-14
4  11.2  5.17581e-15
4  10.7  1.4945e-14
4  11.7  1.86717e-15
6  0.2  0.0102097
6  0.7  0.00620554
6  1.2  0.0013444
6  1.7  0.000224788
6  2.2  4.00685e-05
6  2.7  7.4972e-06
6  3.2  1.52473e-06
6  3.7  3.36694e-07
6  4.2  7.92732e-08
6  4.7  1.96125e-08
6  5.2  5.22892e-09
6  5.7  1.42202e-09
6  6.2  3.96709e-10
6  6.7  1.19171e-10
6  7.2  3.62358e-11
6  7.7  1.10162e-11
6  8.2  3.51353e-12
6  8.7  1.16194e-12
6  9.2  3.77704e-13
6  9.7  1.18195e-13
6  10.2  4.25076e-14
6  10.7  1.47924e-14
6  11.2  5.17822e-15
6  11.7  1.78554e-15
8  0.7  0.0061027
8  0.2  0.0102224
8  1.2  0.0013458
8  2.2  3.93995e-05
8  1.7  0.000223229
8  2.7  7.45047e-06
8  3.2  1.5107e-06
8  3.7  3.35166e-07
8  4.7  1.84226e-08
8  4.2  7.80726e-08
8  5.7  1.35412e-09
8  5.2  5.11477e-09
8  6.2  3.91012e-10
8  6.7  1.13563e-10
8  7.7  1.11538e-11
8  7.2  3.60156e-11
8  8.7  1.09646e-12
8  8.2  3.51516e-12
8  9.2  3.65323e-13
8  10.2  4.18327e-14
8  9.7  1.24575e-13
8  10.7  1.45567e-14
8  11.2  5.05324e-15
8  11.7  1.73762e-15
