# diffractive D0 cross section, Pb target, KniehlKramer fragmentation, An0n channel
# dipole samples : data/Pb/mve/glauber_mve_<b>
# pD0 sweep      : 0.2 to 12.0 GeV, step 0.5
# fixed rapidity y : 0
# ============================================================
# b  pD0  dsigma_dyd2pD0
0  0.7  1.23514
0  0.2  1.31856
0  1.2  0.562195
0  1.7  0.222536
0  2.2  0.090786
0  2.7  0.0408267
0  3.2  0.0202941
0  3.7  0.0106942
0  4.2  0.006024
0  4.7  0.0035725
0  5.2  0.00217891
0  5.7  0.00144354
0  6.2  0.000919215
0  6.7  0.000619385
0  7.7  0.000305408
0  7.2  0.000432128
0  8.2  0.000215215
0  9.2  0.000120111
0  8.7  0.000158159
0  9.7  8.64367e-05
0  10.2  6.62609e-05
0  10.7  5.04182e-05
0  11.7  3.10927e-05
0  11.2  4.03845e-05
10  0.2  1.29696
10  0.7  1.21891
10  1.2  0.54234
10  1.7  0.211075
10  2.2  0.0874845
10  2.7  0.0394325
10  3.2  0.0195307
10  3.7  0.0102937
10  4.2  0.00572764
10  4.7  0.00338948
10  5.2  0.00213666
10  6.7  0.000587155
10  5.7  0.00133578
10  6.2  0.000874684
10  7.2  0.000407107
10  7.7  0.000285542
10  8.2  0.000206809
10  9.2  0.000114643
10  8.7  0.000151524
10  9.7  8.34909e-05
10  10.2  6.44743e-05
10  11.2  3.85193e-05
10  10.7  4.82327e-05
12  0.2  1.28839
10  11.7  2.88888e-05
12  0.7  1.2201
12  1.2  0.532252
12  1.7  0.207766
12  2.2  0.0855015
12  2.7  0.0386845
12  3.2  0.0188406
12  3.7  0.0100471
12  4.2  0.00563328
12  4.7  0.0033836
12  5.2  0.0020345
12  5.7  0.00133116
12  6.2  0.000855965
12  6.7  0.000588274
12  7.2  0.000396879
12  7.7  0.000282276
12  8.2  0.000207453
12  8.7  0.00015117
12  9.2  0.000109244
12  9.7  8.37987e-05
12  10.7  4.711e-05
12  10.2  6.31502e-05
12  11.2  3.66226e-05
12  11.7  2.83202e-05
14  0.2  1.29588
14  0.7  1.19328
14  1.2  0.519534
14  1.7  0.200994
14  2.2  0.0834829
14  3.2  0.0185932
14  2.7  0.0371682
14  3.7  0.00976982
14  4.2  0.00545974
14  4.7  0.00326394
14  5.2  0.00196566
14  5.7  0.00128126
14  6.2  0.000826986
14  6.7  0.00057275
14  7.2  0.00039495
14  7.7  0.000271909
14  8.2  0.000195251
14  8.7  0.000142915
14  9.2  0.000107956
14  9.7  8.13891e-05
14  10.2  6.023e-05
14  10.7  4.58647e-05
14  11.2  3.54625e-05
16  0.2  1.25485
14  11.7  2.76331e-05
16  0.7  1.17156
16  1.2  0.503225
16  1.7  0.195198
16  2.2  0.0803837
16  2.7  0.0362245
16  3.2  0.0177907
16  3.7  0.00934563
16  4.2  0.00531129
16  5.2  0.00193581
16  4.7  0.00310208
16  5.7  0.00120824
16  6.2  0.000803543
16  6.7  0.000538422
16  7.2  0.000370391
16  7.7  0.000260873
16  8.2  0.000188226
16  9.2  0.000101705
16  8.7  0.000135938
16  9.7  7.50122e-05
16  10.2  5.75849e-05
16  11.2  3.4833e-05
16  10.7  4.36523e-05
16  11.7  2.72583e-05
18  0.2  1.23312
18  0.7  1.12491
18  1.7  0.185788
18  1.2  0.488929
18  2.2  0.0763655
18  3.2  0.0169911
18  2.7  0.0350483
18  3.7  0.0089849
18  4.7  0.00300556
18  4.2  0.00500792
18  5.7  0.00117677
18  5.2  0.00181656
18  6.2  0.000775946
18  6.7  0.000513363
18  7.2  0.000358243
18  7.7  0.000250346
18  8.2  0.000183936
18  9.2  9.57713e-05
18  8.7  0.000131357
18  9.7  7.4222e-05
18  10.2  5.52714e-05
18  10.7  4.23065e-05
18  11.2  3.32545e-05
2  0.2  1.32039
18  11.7  2.53479e-05
2  0.7  1.24215
2  1.2  0.563059
2  2.2  0.0916626
2  1.7  0.221079
2  2.7  0.0407973
2  3.2  0.0203112
2  4.2  0.00603231
2  3.7  0.0107895
2  4.7  0.00361586
2  5.2  0.00218308
2  5.7  0.001388
2  6.2  0.000923588
2  6.7  0.000617551
2  7.2  0.000430137
2  7.7  0.000304884
2  8.2  0.000216111
2  8.7  0.00015818
2  9.2  0.00011687
2  9.7  8.91351e-05
2  10.2  6.66822e-05
2  11.2  3.98237e-05
2  10.7  5.18347e-05
2  11.7  3.02832e-05
20  0.2  1.19596
20  0.7  1.0983
20  1.2  0.462234
20  1.7  0.178528
20  2.2  0.0724516
20  2.7  0.0327466
20  3.2  0.0158438
20  3.7  0.00860301
20  4.2  0.0048109
20  4.7  0.00280002
20  5.7  0.00109785
20  5.2  0.00171719
20  6.2  0.000719135
20  6.7  0.000484927
20  7.2  0.000339161
20  7.7  0.000236308
20  8.2  0.000174226
20  8.7  0.000124938
20  9.2  9.1788e-05
20  9.7  6.86941e-05
20  10.2  5.14761e-05
20  11.2  3.05135e-05
20  10.7  3.9391e-05
20  11.7  2.4596e-05
22  0.2  1.17323
22  0.7  1.03874
22  1.2  0.439837
22  1.7  0.164399
22  2.7  0.0304219
22  2.2  0.0677927
22  3.2  0.0151403
22  4.2  0.00442671
22  3.7  0.00785392
22  4.7  0.00265021
22  5.2  0.00159192
22  5.7  0.00104887
22  6.2  0.000672868
22  6.7  0.000451686
22  7.2  0.00030809
22  7.7  0.000226785
22  8.2  0.000161401
22  8.7  0.000115068
22  9.2  8.7822e-05
22  9.7  6.37351e-05
22  10.2  4.79875e-05
22  10.7  3.77572e-05
22  11.2  2.8378e-05
22  11.7  2.21652e-05
24  0.2  1.13243
24  0.7  0.992883
24  1.2  0.402377
24  2.2  0.0620822
24  1.7  0.153309
24  2.7  0.0274815
24  3.7  0.00721897
24  3.2  0.0137886
24  4.2  0.00397573
24  4.7  0.00236863
24  5.2  0.00144745
24  5.7  0.000960466
24  6.2  0.000605621
24  7.2  0.000287119
24  6.7  0.000411894
24  7.7  0.00020003
24  8.2  0.000148037
24  8.7  0.000104501
24  9.2  7.9209e-05
24  10.2  4.35444e-05
24  9.7  5.79238e-05
24  11.2  2.61757e-05
24  10.7  3.33763e-05
26  0.2  1.07709
24  11.7  1.9925e-05
26  1.2  0.358277
26  0.7  0.907394
26  1.7  0.135038
26  2.2  0.0546751
26  2.7  0.0248014
26  3.2  0.0119445
26  3.7  0.0062621
26  4.7  0.0020744
26  4.2  0.00358303
26  5.2  0.00130717
26  5.7  0.000839555
26  6.2  0.00053545
26  6.7  0.000370295
26  7.2  0.000249931
26  7.7  0.000181131
26  8.7  9.22801e-05
26  8.2  0.000130147
26  9.2  6.79575e-05
26  9.7  5.12475e-05
26  10.2  3.78508e-05
26  11.2  2.29169e-05
26  10.7  2.91972e-05
26  11.7  1.81433e-05
28  0.2  0.988806
28  0.7  0.791809
28  1.2  0.309547
28  1.7  0.113525
28  2.2  0.0465711
28  2.7  0.0205062
28  3.2  0.0101647
28  3.7  0.00529384
28  4.2  0.00294366
28  4.7  0.00177032
28  5.7  0.000677562
28  5.2  0.00109691
28  6.2  0.000450511
28  6.7  0.000307334
28  7.2  0.000215566
28  7.7  0.000150176
28  8.7  7.81547e-05
28  8.2  0.000105427
28  9.2  5.75574e-05
28  9.7  4.38514e-05
28  10.2  3.18597e-05
28  10.7  2.44505e-05
28  11.2  1.94818e-05
28  11.7  1.46732e-05
30  0.2  0.887199
30  0.7  0.670504
30  1.2  0.247816
30  1.7  0.0905199
30  2.2  0.0364645
30  2.7  0.016217
30  3.2  0.00797796
30  3.7  0.00406802
30  4.2  0.0023419
30  4.7  0.00140298
30  5.2  0.000867982
30  5.7  0.000537592
30  6.2  0.000354115
30  6.7  0.000235303
30  7.2  0.000162982
30  7.7  0.000118456
30  8.2  8.33071e-05
30  8.7  6.14078e-05
30  9.2  4.41032e-05
30  9.7  3.28446e-05
30  10.2  2.49337e-05
30  10.7  1.93405e-05
30  11.2  1.49129e-05
32  0.2  0.749405
30  11.7  1.165e-05
32  0.7  0.503334
32  1.2  0.184593
32  1.7  0.0667605
32  2.2  0.0259504
32  3.2  0.00578041
32  2.7  0.0116198
32  4.2  0.00166844
32  3.7  0.00299646
32  4.7  0.00100085
32  5.7  0.000389331
32  5.2  0.000601362
32  6.2  0.000254022
32  6.7  0.000171957
32  7.2  0.000116472
32  7.7  8.18154e-05
32  8.2  5.92141e-05
32  8.7  4.25968e-05
32  9.2  3.22303e-05
32  10.2  1.81287e-05
32  9.7  2.39034e-05
32  10.7  1.36731e-05
32  11.2  1.05776e-05
32  11.7  8.25962e-06
4  0.2  1.31558
4  0.7  1.25257
4  1.2  0.56271
4  1.7  0.22005
4  2.2  0.0903621
4  2.7  0.041179
4  3.2  0.0204479
4  3.7  0.0106307
4  4.2  0.00603227
4  4.7  0.00359074
4  5.2  0.00217773
4  5.7  0.0013899
4  6.2  0.00091485
4  6.7  0.000618413
4  7.2  0.000436445
4  7.7  0.000297924
4  8.2  0.000215967
4  9.2  0.000119211
4  8.7  0.000158046
4  9.7  8.88238e-05
4  10.2  6.70657e-05
4  10.7  5.03984e-05
4  11.2  3.89489e-05
4  11.7  3.05972e-05
6  0.2  1.31745
6  0.7  1.24027
6  1.2  0.55289
6  1.7  0.216767
6  2.2  0.0896731
6  2.7  0.0407815
6  3.2  0.0199615
6  3.7  0.0106318
6  4.2  0.00589366
6  4.7  0.00344834
6  5.7  0.00138808
6  5.2  0.00216921
6  6.2  0.00089996
6  7.2  0.000425037
6  6.7  0.00061364
6  7.7  0.000293695
6  8.2  0.000218025
6  8.7  0.000157067
6  9.7  8.84058e-05
6  9.2  0.000115541
6  10.2  6.55498e-05
6  10.7  5.05603e-05
6  11.7  2.98961e-05
6  11.2  3.83878e-05
8  0.2  1.30815
8  0.7  1.2289
8  1.2  0.552393
8  1.7  0.217015
8  2.2  0.0887061
8  2.7  0.0398512
8  3.2  0.0197191
8  4.2  0.00589321
8  3.7  0.0104422
8  4.7  0.00343536
8  5.2  0.00211799
8  5.7  0.00136678
8  6.2  0.000893872
8  7.2  0.000425745
8  6.7  0.000603441
8  8.2  0.000212227
8  7.7  0.000293466
8  9.2  0.000113026
8  8.7  0.000155015
8  9.7  8.73779e-05
8  10.2  6.36737e-05
8  10.7  4.94765e-05
8  11.2  3.87464e-05
8  11.7  3.06224e-05
