# diffractive D0 cross section, Pb target, BCFY fragmentation, An0n channel
# dipole samples : data/Pb/mve/glauber_mve_<b>
# pD0 sweep      : 0.2 to 12.0 GeV, step 0.5
# fixed rapidity y : 2.0
# ============================================================
# b  pD0  dsigma_dyd2pD0
0  0.7  0.642142
0  1.2  0.360781
0  0.2  0.326953
0  1.7  0.142817
0  2.2  0.0540402
0  3.7  0.00443514
0  3.2  0.0095434
0  2.7  0.0218897
0  4.2  0.0022481
0  5.7  0.000357434
0  5.2  0.000629993
0  4.7  0.00115779
0  6.2  0.000216439
0  7.2  7.92679e-05
0  6.7  0.000129516
0  8.2  3.31985e-05
0  8.7  2.09949e-05
0  7.7  5.06096e-05
0  9.2  1.44316e-05
0  9.7  9.86834e-06
0  10.7  4.52111e-06
0  10.2  6.80389e-06
0  11.2  3.21563e-06
10  0.7  0.630834
0  11.7  2.3411e-06
10  0.2  0.325432
10  1.2  0.352699
10  1.7  0.135909
10  2.2  0.051545
10  2.7  0.0205686
10  3.7  0.00433936
10  3.2  0.00911489
10  4.7  0.00111504
10  4.2  0.00209441
10  5.7  0.000342475
10  5.2  0.000617621
10  6.2  0.000203208
10  6.7  0.000123122
10  7.2  7.71635e-05
10  7.7  4.86186e-05
10  8.2  3.15335e-05
10  8.7  2.0754e-05
10  9.2  1.3874e-05
10  10.7  4.47709e-06
10  11.2  3.11381e-06
10  9.7  9.49501e-06
10  10.2  6.50556e-06
10  11.7  2.13187e-06
12  0.7  0.629547
12  0.2  0.320239
12  1.7  0.134282
12  1.2  0.34277
12  3.2  0.00908574
12  2.2  0.0517829
12  2.7  0.0204463
12  3.7  0.00413308
12  4.2  0.00206396
12  4.7  0.00108044
12  5.2  0.00058685
12  5.7  0.000337334
12  6.2  0.000197942
12  6.7  0.000119983
12  7.2  7.45045e-05
12  8.7  1.96769e-05
12  8.2  2.9163e-05
12  7.7  4.70549e-05
12  10.2  6.30296e-06
12  9.2  1.34532e-05
12  10.7  4.30402e-06
12  9.7  9.22696e-06
12  11.7  2.08277e-06
12  11.2  3.06019e-06
14  0.2  0.318337
14  0.7  0.613734
14  1.7  0.129774
14  1.2  0.33578
14  2.2  0.049191
14  3.2  0.00859837
14  2.7  0.0200171
14  3.7  0.00401768
14  4.2  0.00203178
14  4.7  0.00107627
14  5.2  0.000581484
14  6.2  0.000193255
14  5.7  0.000330053
14  7.2  7.28336e-05
14  6.7  0.000117851
14  7.7  4.62566e-05
14  9.2  1.26716e-05
14  8.2  3.0179e-05
14  8.7  1.97512e-05
14  9.7  8.84546e-06
14  10.2  6.07036e-06
14  10.7  4.21574e-06
14  11.7  2.09758e-06
14  11.2  2.9806e-06
16  0.2  0.314215
16  0.7  0.607386
16  1.7  0.128236
16  1.2  0.328886
16  2.7  0.0196891
16  2.2  0.0473699
16  3.2  0.00836342
16  3.7  0.00388396
16  4.2  0.00193121
16  5.2  0.000551319
16  6.2  0.000178743
16  4.7  0.00102351
16  5.7  0.000315688
16  6.7  0.000110039
16  7.2  7.12308e-05
16  7.7  4.46218e-05
16  8.7  1.91028e-05
16  8.2  2.87256e-05
16  9.7  8.60447e-06
16  9.2  1.28269e-05
16  10.2  5.67789e-06
16  10.7  4.06303e-06
16  11.2  2.85431e-06
18  0.2  0.316356
18  0.7  0.593395
16  11.7  2.03519e-06
18  1.7  0.121038
18  1.2  0.318626
18  2.2  0.0454395
18  2.7  0.018406
18  3.2  0.00797023
18  3.7  0.00376191
18  4.2  0.00185572
18  5.2  0.00052326
18  4.7  0.000987661
18  5.7  0.00030854
18  6.2  0.000177845
18  7.2  6.72563e-05
18  7.7  4.25093e-05
18  6.7  0.000106686
18  8.2  2.74085e-05
18  8.7  1.81467e-05
18  9.2  1.21384e-05
18  9.7  8.18705e-06
18  11.2  2.61929e-06
18  10.7  3.6864e-06
18  10.2  5.64283e-06
2  0.2  0.331027
18  11.7  1.88066e-06
2  0.7  0.640083
2  1.2  0.359537
2  1.7  0.142015
2  2.2  0.053834
2  3.7  0.00447002
2  3.2  0.00955532
2  2.7  0.0218145
2  4.2  0.00221926
2  4.7  0.00114661
2  5.7  0.000369494
2  5.2  0.000646363
2  7.7  5.33248e-05
2  7.2  8.14689e-05
2  6.2  0.000218309
2  6.7  0.000128591
2  8.2  3.35958e-05
2  8.7  2.15576e-05
2  9.2  1.44618e-05
2  10.2  6.47746e-06
2  9.7  9.90238e-06
2  10.7  4.68824e-06
20  0.2  0.311407
2  11.7  2.32968e-06
2  11.2  3.28824e-06
20  1.2  0.306893
20  0.7  0.573797
20  1.7  0.115626
20  2.2  0.0433132
20  3.2  0.00747635
20  2.7  0.0178952
20  4.2  0.00174296
20  3.7  0.00348136
20  4.7  0.000920418
20  5.2  0.00050733
20  6.2  0.000170926
20  5.7  0.000285914
20  6.7  0.000101349
20  7.7  4.02568e-05
20  7.2  6.30789e-05
20  8.2  2.64238e-05
20  8.7  1.71551e-05
20  9.2  1.1357e-05
20  9.7  7.66214e-06
20  10.2  5.11954e-06
20  10.7  3.63954e-06
20  11.7  1.78884e-06
22  0.2  0.304653
20  11.2  2.55077e-06
22  0.7  0.558507
22  1.2  0.287847
22  2.2  0.041368
22  1.7  0.110618
22  2.7  0.0162894
22  3.2  0.00697097
22  3.7  0.0032678
22  4.7  0.000856317
22  4.2  0.00164187
22  5.2  0.000458973
22  5.7  0.000264606
22  6.7  9.39365e-05
22  6.2  0.000154239
22  7.2  5.87128e-05
22  8.2  2.412e-05
22  7.7  3.74736e-05
22  8.7  1.58929e-05
22  9.2  1.06284e-05
22  9.7  7.26675e-06
22  10.7  3.39361e-06
22  11.2  2.29512e-06
22  10.2  4.92968e-06
24  0.2  0.296123
22  11.7  1.7067e-06
24  0.7  0.533162
24  1.2  0.267265
24  1.7  0.0994601
24  2.2  0.036702
24  2.7  0.0146953
24  3.7  0.00307537
24  3.2  0.00632792
24  4.2  0.00148598
24  4.7  0.000777357
24  5.2  0.000430847
24  6.2  0.000143855
24  5.7  0.000240687
24  6.7  8.63137e-05
24  7.2  5.35761e-05
24  7.7  3.36815e-05
24  8.2  2.1798e-05
24  8.7  1.46022e-05
24  10.2  4.42474e-06
24  9.7  6.52769e-06
24  9.2  9.61715e-06
24  11.2  2.12431e-06
24  10.7  3.07237e-06
26  0.7  0.496334
26  0.2  0.287465
24  11.7  1.51447e-06
26  1.7  0.087197
26  1.2  0.24122
26  2.2  0.033064
26  2.7  0.0134001
26  3.2  0.00560699
26  3.7  0.00266306
26  4.2  0.00131433
26  5.2  0.000371962
26  4.7  0.00067857
26  5.7  0.000210614
26  6.2  0.00012924
26  6.7  7.63185e-05
26  7.2  4.8202e-05
26  7.7  2.98622e-05
26  8.7  1.25922e-05
26  8.2  1.9021e-05
26  9.2  8.43423e-06
26  9.7  5.72346e-06
26  10.2  3.89473e-06
26  11.2  1.8989e-06
26  11.7  1.30821e-06
26  10.7  2.72757e-06
28  0.7  0.443118
28  0.2  0.272755
28  1.7  0.0749003
28  1.2  0.208951
28  2.2  0.0287886
28  2.7  0.0109447
28  3.2  0.00482047
28  3.7  0.00222961
28  4.2  0.00108678
28  4.7  0.000566421
28  6.2  0.000104142
28  5.7  0.000168188
28  5.2  0.000308654
28  6.7  6.2329e-05
28  7.2  3.89082e-05
28  8.2  1.58721e-05
28  7.7  2.39614e-05
28  8.7  1.04757e-05
28  9.2  7.03298e-06
28  10.7  2.29354e-06
28  10.2  3.27625e-06
28  9.7  4.76018e-06
28  11.2  1.57074e-06
30  0.2  0.250668
28  11.7  1.04306e-06
30  0.7  0.382166
30  1.2  0.170908
30  1.7  0.0597349
30  2.7  0.00877812
30  2.2  0.021809
30  3.2  0.00366157
30  4.7  0.000434567
30  3.7  0.00172325
30  4.2  0.000862027
30  5.2  0.000249868
30  5.7  0.000141005
30  6.2  8.19319e-05
30  6.7  4.85434e-05
30  7.2  3.10268e-05
30  7.7  1.9111e-05
30  8.2  1.25005e-05
30  8.7  8.3906e-06
30  9.2  5.45537e-06
30  9.7  3.7441e-06
30  10.7  1.80366e-06
30  10.2  2.57657e-06
30  11.2  1.20799e-06
32  0.2  0.220129
30  11.7  8.81561e-07
32  0.7  0.29866
32  1.7  0.0445276
32  1.2  0.123861
32  2.7  0.00624487
32  2.2  0.0158114
32  3.2  0.00260863
32  4.2  0.000632058
32  3.7  0.00126582
32  5.2  0.000180769
32  4.7  0.000330542
32  6.2  6.06775e-05
32  6.7  3.62125e-05
32  5.7  0.000100305
32  7.2  2.22439e-05
32  7.7  1.42241e-05
32  8.2  8.92804e-06
32  9.2  3.89921e-06
32  8.7  5.70712e-06
32  9.7  2.70264e-06
32  10.2  1.85353e-06
32  10.7  1.28462e-06
32  11.2  8.62027e-07
4  0.2  0.328811
32  11.7  6.29455e-07
4  1.7  0.139708
4  0.7  0.642063
4  1.2  0.360184
4  2.7  0.0216781
4  2.2  0.0542208
4  3.2  0.00948146
4  3.7  0.00439972
4  4.7  0.00117827
4  4.2  0.00217195
4  5.2  0.000634758
4  6.7  0.000127917
4  5.7  0.000364043
4  6.2  0.0002154
4  7.2  8.05447e-05
4  7.7  5.05789e-05
4  8.7  2.15195e-05
4  8.2  3.2586e-05
4  9.7  9.80365e-06
4  9.2  1.45463e-05
4  10.7  4.49787e-06
4  10.2  6.80936e-06
4  11.2  3.15052e-06
6  0.2  0.328856
6  0.7  0.63788
4  11.7  2.29409e-06
6  1.2  0.357835
6  1.7  0.141296
6  3.2  0.00948642
6  2.2  0.0529788
6  2.7  0.0213951
6  4.2  0.00225367
6  4.7  0.00116423
6  3.7  0.00431995
6  5.7  0.000355107
6  5.2  0.00063191
6  6.2  0.000212608
6  6.7  0.000124577
6  7.2  7.88164e-05
6  7.7  4.98774e-05
6  8.7  2.15673e-05
6  8.2  3.21931e-05
6  9.7  9.7548e-06
6  9.2  1.4561e-05
6  11.2  3.10983e-06
6  10.2  6.63123e-06
6  10.7  4.5856e-06
6  11.7  2.15621e-06
8  0.2  0.325691
8  1.2  0.349376
8  0.7  0.633163
8  1.7  0.137849
8  2.2  0.0523219
8  3.2  0.00925799
8  3.7  0.0042825
8  2.7  0.0212279
8  4.7  0.00112312
8  4.2  0.00212164
8  5.2  0.000625611
8  5.7  0.000357477
8  6.7  0.000122668
8  6.2  0.000210854
8  7.2  7.77509e-05
8  8.2  3.21448e-05
8  8.7  2.12624e-05
8  7.7  4.94679e-05
8  9.2  1.41236e-05
8  9.7  9.60896e-06
8  10.7  4.42922e-06
8  11.2  3.13886e-06
8  10.2  6.54315e-06
8  11.7  2.23631e-06
