# diffractive D0 cross section, Pb target, KniehlKramer fragmentation, An0n channel
# dipole samples : data/Pb/mve/glauber_mve_<b>
# pD0 sweep      : 0.2 to 12.0 GeV, step 0.5
# fixed rapidity y : 0.5
# ============================================================
# b  pD0  dsigma_dyd2pD0
0  0.7  1.13031
0  0.2  1.19882
0  1.2  0.49964
0  1.7  0.18896
0  2.2  0.0761066
0  2.7  0.0338166
0  3.2  0.0161882
0  3.7  0.00848386
0  4.7  0.00272172
0  4.2  0.00458334
0  5.2  0.00164264
0  5.7  0.00101834
0  6.7  0.000443575
0  6.2  0.000667366
0  7.7  0.000204921
0  7.2  0.000295496
0  8.2  0.00014492
0  8.7  0.00010414
0  9.2  7.65348e-05
0  9.7  5.71661e-05
0  10.2  4.30672e-05
0  10.7  3.18537e-05
0  11.2  2.50424e-05
10  0.2  1.17301
0  11.7  1.84544e-05
10  1.2  0.469824
10  0.7  1.09396
10  1.7  0.180295
10  2.2  0.0726895
10  2.7  0.0320135
10  3.2  0.0153748
10  3.7  0.00800379
10  4.2  0.00436603
10  4.7  0.00258002
10  5.2  0.00153359
10  5.7  0.000977232
10  6.2  0.000620836
10  6.7  0.000426254
10  7.2  0.000289621
10  7.7  0.000193634
10  8.2  0.0001355
10  8.7  9.94438e-05
10  9.2  7.48466e-05
10  9.7  5.50202e-05
10  10.2  3.99854e-05
10  10.7  3.05565e-05
10  11.2  2.31441e-05
12  0.2  1.16918
10  11.7  1.83941e-05
12  0.7  1.08771
12  1.2  0.46701
12  1.7  0.176995
12  2.2  0.0714212
12  2.7  0.031302
12  3.2  0.0149453
12  3.7  0.00775143
12  4.2  0.00432682
12  4.7  0.00249368
12  5.2  0.00152854
12  5.7  0.000959751
12  6.2  0.000610609
12  6.7  0.000396003
12  7.2  0.000277442
12  7.7  0.000193198
12  8.2  0.000137527
12  9.2  7.10635e-05
12  8.7  9.66517e-05
12  9.7  5.33523e-05
12  10.2  4.0009e-05
12  10.7  3.03121e-05
12  11.2  2.26687e-05
12  11.7  1.74585e-05
14  0.2  1.15042
14  0.7  1.06857
14  1.7  0.170233
14  1.2  0.454537
14  2.2  0.0686642
14  2.7  0.0307634
14  3.2  0.014572
14  3.7  0.00755877
14  4.2  0.00415301
14  4.7  0.00244404
14  5.2  0.00147145
14  5.7  0.000919538
14  6.7  0.000396969
14  6.2  0.000596119
14  7.2  0.00026774
14  8.2  0.000133579
14  7.7  0.000184711
14  8.7  9.42235e-05
14  9.7  5.2247e-05
14  10.2  3.84303e-05
14  9.2  6.89625e-05
14  10.7  2.84068e-05
14  11.2  2.17868e-05
16  0.2  1.12299
14  11.7  1.71664e-05
16  0.7  1.03802
16  1.2  0.445458
16  1.7  0.166778
16  2.2  0.0669573
16  3.2  0.0139826
16  2.7  0.029504
16  3.7  0.00735123
16  4.2  0.00403494
16  4.7  0.00233326
16  5.2  0.0014063
16  5.7  0.000892356
16  6.2  0.000581782
16  6.7  0.000387007
16  7.2  0.000255283
16  7.7  0.000178528
16  8.2  0.000124105
16  8.7  9.09261e-05
16  9.7  5.01644e-05
16  9.2  6.62826e-05
16  10.2  3.64338e-05
16  10.7  2.83323e-05
16  11.2  2.17432e-05
18  0.2  1.11067
18  0.7  1.02151
16  11.7  1.62499e-05
18  1.2  0.432062
18  1.7  0.159136
18  2.2  0.0639618
18  2.7  0.0283227
18  3.2  0.0135471
18  3.7  0.00698718
18  4.2  0.00384268
18  4.7  0.00220196
18  5.2  0.00136913
18  5.7  0.000854628
18  6.2  0.000551364
18  6.7  0.000363701
18  7.2  0.000251296
18  7.7  0.000172164
18  8.7  8.8871e-05
18  8.2  0.000120469
18  9.2  6.22716e-05
18  9.7  4.80812e-05
18  10.2  3.50258e-05
18  11.2  1.97168e-05
18  10.7  2.64313e-05
2  0.2  1.19136
18  11.7  1.60637e-05
2  0.7  1.13072
2  1.2  0.487587
2  1.7  0.189856
2  2.2  0.0756755
2  2.7  0.0330356
2  3.2  0.0161298
2  3.7  0.00840366
2  4.2  0.00467236
2  4.7  0.00268265
2  5.2  0.00161313
2  5.7  0.00100122
2  6.2  0.000654421
2  6.7  0.000438225
2  7.7  0.000209836
2  7.2  0.000302276
2  8.2  0.000142974
2  8.7  0.000107088
2  9.2  7.61816e-05
2  10.2  4.15742e-05
2  9.7  5.62506e-05
2  10.7  3.18511e-05
2  11.2  2.41702e-05
2  11.7  1.89309e-05
20  0.2  1.09862
20  0.7  0.978849
20  1.2  0.413254
20  2.2  0.0604926
20  1.7  0.152249
20  2.7  0.0267274
20  3.2  0.0127017
20  3.7  0.00661618
20  4.7  0.00208306
20  4.2  0.00363966
20  5.2  0.00126609
20  6.2  0.000512127
20  5.7  0.000802196
20  6.7  0.000340442
20  7.2  0.00023267
20  7.7  0.000160026
20  8.2  0.000114795
20  8.7  8.17376e-05
20  9.2  5.98352e-05
20  9.7  4.50972e-05
20  10.2  3.39317e-05
20  10.7  2.566e-05
20  11.7  1.49285e-05
20  11.2  1.89245e-05
22  0.2  1.06504
22  0.7  0.940393
22  1.2  0.389577
22  1.7  0.143515
22  2.2  0.0560248
22  2.7  0.0248476
22  3.7  0.00610187
22  3.2  0.0119078
22  4.2  0.0034026
22  5.2  0.00120003
22  4.7  0.0019693
22  5.7  0.000749811
22  6.7  0.000317252
22  6.2  0.000476985
22  7.2  0.000217796
22  8.2  0.000106152
22  7.7  0.000150452
22  8.7  7.78431e-05
22  9.7  4.1387e-05
22  9.2  5.54378e-05
22  10.2  3.12848e-05
22  10.7  2.31863e-05
22  11.2  1.80518e-05
24  0.2  1.00437
22  11.7  1.35179e-05
24  0.7  0.879604
24  1.2  0.353644
24  1.7  0.130753
24  2.2  0.0518036
24  2.7  0.0227487
24  3.2  0.0110797
24  3.7  0.00563416
24  4.2  0.00310959
24  4.7  0.00180264
24  5.2  0.00107355
24  5.7  0.00066074
24  6.2  0.000434659
24  6.7  0.000288283
24  7.2  0.000201842
24  7.7  0.000137423
24  8.2  9.81474e-05
24  8.7  7.07764e-05
24  9.7  3.82672e-05
24  9.2  5.02842e-05
24  10.7  2.11711e-05
24  10.2  2.83752e-05
24  11.7  1.25351e-05
24  11.2  1.62191e-05
26  0.2  0.970683
26  0.7  0.806508
26  1.2  0.320613
26  1.7  0.116301
26  2.2  0.0458843
26  2.7  0.0202849
26  3.2  0.00953654
26  3.7  0.00492219
26  4.2  0.00276049
26  4.7  0.001599
26  5.7  0.000589865
26  5.2  0.000963304
26  6.2  0.00038282
26  6.7  0.000255781
26  7.7  0.000123349
26  7.2  0.000173378
26  8.2  8.48609e-05
26  8.7  6.01183e-05
26  9.2  4.40538e-05
26  9.7  3.26994e-05
26  10.2  2.42991e-05
26  10.7  1.8349e-05
26  11.2  1.41292e-05
26  11.7  1.1099e-05
28  0.2  0.907047
28  0.7  0.715035
28  1.7  0.0989852
28  1.2  0.273945
28  2.7  0.0167203
28  2.2  0.0386668
28  3.2  0.00808601
28  3.7  0.0041825
28  4.7  0.00131969
28  4.2  0.00231402
28  5.2  0.000798964
28  5.7  0.000499231
28  6.7  0.000211179
28  6.2  0.000323209
28  7.2  0.000145302
28  7.7  0.000102159
28  8.2  7.1088e-05
28  8.7  5.23916e-05
28  9.2  3.77392e-05
28  9.7  2.74332e-05
28  10.2  2.13575e-05
28  10.7  1.53955e-05
28  11.2  1.20162e-05
30  0.2  0.808381
28  11.7  9.22615e-06
30  1.2  0.216019
30  0.7  0.598662
30  1.7  0.0789569
30  2.2  0.0302867
30  2.7  0.0133755
30  3.2  0.00640688
30  3.7  0.00334817
30  4.7  0.00100964
30  4.2  0.00183393
30  5.2  0.000617668
30  5.7  0.000396384
30  6.2  0.000256101
30  7.2  0.000112508
30  6.7  0.000167604
30  7.7  7.89604e-05
30  8.2  5.53409e-05
30  8.7  3.98491e-05
30  9.7  2.19105e-05
30  9.2  2.87749e-05
30  10.2  1.61812e-05
30  11.2  9.211e-06
30  10.7  1.20873e-05
32  0.2  0.681211
30  11.7  7.21994e-06
32  0.7  0.450544
32  1.7  0.057727
32  1.2  0.156081
32  2.2  0.0217237
32  2.7  0.00937559
32  3.7  0.00226772
32  3.2  0.00449086
32  4.7  0.000727727
32  4.2  0.00129103
32  5.2  0.000451631
32  5.7  0.000282024
32  6.2  0.00018125
32  6.7  0.000120418
32  7.7  5.63146e-05
32  7.2  7.99802e-05
32  8.2  3.95772e-05
32  8.7  2.847e-05
32  9.2  2.06441e-05
32  9.7  1.53387e-05
32  10.2  1.1597e-05
32  10.7  8.79469e-06
32  11.2  6.71175e-06
32  11.7  5.0842e-06
4  0.2  1.18716
4  0.7  1.13896
4  1.2  0.490664
4  1.7  0.189156
4  2.2  0.0752718
4  2.7  0.0334737
4  3.2  0.0161259
4  3.7  0.00814583
4  4.7  0.0026553
4  4.2  0.00455911
4  5.2  0.0016292
4  5.7  0.000985501
4  6.2  0.000663036
4  6.7  0.000435238
4  7.2  0.000293595
4  7.7  0.000202548
4  8.2  0.000148078
4  8.7  0.000103126
4  9.2  7.50832e-05
4  9.7  5.66671e-05
4  10.2  4.12038e-05
4  10.7  3.21901e-05
4  11.7  1.91024e-05
4  11.2  2.41062e-05
6  0.2  1.1702
6  0.7  1.1234
6  1.2  0.489778
6  1.7  0.186359
6  2.2  0.0746648
6  2.7  0.0329081
6  3.2  0.015834
6  3.7  0.00834793
6  4.2  0.00451894
6  4.7  0.00263391
6  5.2  0.00160785
6  5.7  0.000979966
6  6.2  0.000654167
6  6.7  0.000430729
6  7.2  0.000292964
6  7.7  0.000203029
6  8.2  0.000147152
6  8.7  0.000101975
6  9.7  5.55006e-05
6  9.2  7.56144e-05
6  10.2  4.24009e-05
6  10.7  3.22613e-05
6  11.2  2.46295e-05
6  11.7  1.81028e-05
8  0.2  1.20137
8  0.7  1.10983
8  1.2  0.480606
8  1.7  0.183383
8  2.2  0.0729587
8  2.7  0.032596
8  3.7  0.00816726
8  3.2  0.015613
8  4.2  0.00448279
8  4.7  0.00260909
8  5.2  0.00161542
8  5.7  0.00099839
8  6.2  0.000627718
8  6.7  0.000429177
8  7.2  0.000285444
8  7.7  0.000198244
8  8.2  0.000140284
8  8.7  0.000103383
8  9.2  7.38229e-05
8  9.7  5.44164e-05
8  10.2  4.11019e-05
8  10.7  3.15693e-05
8  11.2  2.36512e-05
8  11.7  1.86171e-05
