# diffractive D0 cross section, Pb target, KniehlKramer fragmentation, An0n channel
# dipole samples : data/Pb/mve/glauber_mve_<b>
# pD0 sweep      : 0.2 to 12.0 GeV, step 0.5
# fixed rapidity y : 1.5
# ============================================================
# b  pD0  dsigma_dyd2pD0
0  0.2  0.762499
0  0.7  0.694479
0  1.2  0.278554
0  2.2  0.0362015
0  1.7  0.0978344
0  2.7  0.0149834
0  3.2  0.00682228
0  4.2  0.00162612
0  3.7  0.00312624
0  4.7  0.000872383
0  5.2  0.000514135
0  5.7  0.000299833
0  6.2  0.00017395
0  6.7  0.000114424
0  7.2  7.31241e-05
0  7.7  4.74415e-05
0  8.2  3.14455e-05
0  8.7  2.19526e-05
0  9.2  1.52374e-05
0  9.7  1.07513e-05
0  10.2  7.60253e-06
0  10.7  5.48971e-06
0  11.2  3.96172e-06
10  0.2  0.761681
0  11.7  2.89274e-06
10  0.7  0.675661
10  1.2  0.269439
10  1.7  0.093844
10  2.2  0.0348307
10  2.7  0.0142829
10  3.2  0.00621929
10  3.7  0.00298596
10  4.2  0.00154157
10  5.2  0.000478295
10  4.7  0.000845798
10  5.7  0.000264854
10  6.2  0.000172096
10  6.7  0.000108701
10  7.2  6.9773e-05
10  7.7  4.57862e-05
10  8.2  3.06961e-05
10  8.7  2.09507e-05
10  9.2  1.46257e-05
10  9.7  1.01488e-05
10  10.2  7.23618e-06
10  10.7  5.0491e-06
10  11.7  2.74253e-06
10  11.2  3.74685e-06
12  0.2  0.740684
12  0.7  0.667103
12  1.2  0.26537
12  1.7  0.092277
12  2.2  0.0340971
12  3.2  0.00611539
12  2.7  0.0138321
12  3.7  0.00290346
12  4.2  0.00149413
12  4.7  0.000811297
12  5.2  0.000472419
12  5.7  0.000276867
12  6.2  0.000165513
12  6.7  0.000104859
12  7.2  6.86104e-05
12  7.7  4.3092e-05
12  8.2  3.00579e-05
12  8.7  2.01454e-05
12  9.2  1.41869e-05
12  10.2  6.77788e-06
12  9.7  9.63305e-06
12  11.2  3.62477e-06
12  10.7  5.08273e-06
12  11.7  2.68561e-06
14  0.2  0.737967
14  0.7  0.651681
14  1.2  0.260203
14  1.7  0.0898168
14  2.2  0.0331342
14  2.7  0.0137845
14  3.2  0.00605546
14  3.7  0.00282886
14  4.2  0.00146523
14  4.7  0.000804708
14  5.2  0.000462912
14  5.7  0.000259462
14  6.2  0.00016342
14  7.2  6.6324e-05
14  6.7  0.000102214
14  7.7  4.3313e-05
14  8.2  2.89921e-05
14  9.2  1.31485e-05
14  8.7  1.99345e-05
14  9.7  9.58909e-06
14  10.2  6.87974e-06
14  10.7  4.9017e-06
14  11.2  3.53053e-06
16  0.2  0.729448
14  11.7  2.61763e-06
16  0.7  0.638482
16  1.2  0.251394
16  1.7  0.0869388
16  2.2  0.031362
16  3.2  0.00582073
16  2.7  0.0128929
16  3.7  0.00271451
16  4.2  0.00143307
16  4.7  0.000781044
16  5.2  0.000441137
16  5.7  0.000255798
16  6.2  0.000156684
16  6.7  9.95418e-05
16  7.2  6.35342e-05
16  7.7  4.21533e-05
16  8.2  2.80897e-05
16  9.2  1.32149e-05
16  8.7  1.90725e-05
16  9.7  9.15158e-06
16  10.2  6.56334e-06
16  10.7  4.71722e-06
16  11.2  3.48059e-06
18  0.2  0.719277
16  11.7  2.48514e-06
18  0.7  0.627974
18  1.2  0.243895
18  1.7  0.0821011
18  2.7  0.0124174
18  2.2  0.0307759
18  3.2  0.00540999
18  3.7  0.00265988
18  4.2  0.00135402
18  4.7  0.000743212
18  5.7  0.000241663
18  5.2  0.000414761
18  6.2  0.000146526
18  6.7  9.45127e-05
18  7.2  6.06787e-05
18  7.7  3.96355e-05
18  8.2  2.60696e-05
18  9.2  1.23653e-05
18  8.7  1.81785e-05
18  9.7  8.91335e-06
18  10.2  6.21372e-06
18  10.7  4.52385e-06
18  11.2  3.26198e-06
18  11.7  2.40905e-06
2  0.2  0.757505
2  0.7  0.6883
2  1.2  0.279482
2  2.2  0.0366281
2  1.7  0.0991665
2  2.7  0.0147508
2  3.2  0.00653907
2  4.2  0.00160738
2  3.7  0.00313255
2  4.7  0.000879007
2  5.2  0.000506122
2  5.7  0.000297503
2  6.2  0.000181178
2  6.7  0.000108948
2  7.2  7.37054e-05
2  7.7  4.67923e-05
2  8.2  3.18846e-05
2  8.7  2.17654e-05
2  9.2  1.47192e-05
2  9.7  1.0687e-05
2  10.2  7.56287e-06
2  11.2  3.87624e-06
2  10.7  5.47264e-06
20  0.7  0.603649
20  0.2  0.705797
2  11.7  2.91176e-06
20  1.2  0.233451
20  1.7  0.0805364
20  2.2  0.028852
20  2.7  0.011445
20  3.2  0.00508391
20  3.7  0.00247546
20  4.7  0.000683259
20  4.2  0.00126099
20  5.2  0.000389729
20  5.7  0.00023444
20  6.2  0.000142288
20  6.7  8.86024e-05
20  7.2  5.61961e-05
20  7.7  3.81461e-05
20  8.2  2.54133e-05
20  8.7  1.71569e-05
20  9.2  1.19192e-05
20  9.7  8.41701e-06
20  10.2  5.94207e-06
20  11.7  2.24191e-06
20  10.7  4.30893e-06
20  11.2  3.10397e-06
22  0.2  0.688868
22  0.7  0.57676
22  1.2  0.218995
22  2.2  0.027107
22  1.7  0.0744742
22  2.7  0.010618
22  3.2  0.00493553
22  3.7  0.00226745
22  4.2  0.00119346
22  4.7  0.000649412
22  5.7  0.000218061
22  5.2  0.000363076
22  6.2  0.00013048
22  6.7  8.14995e-05
22  7.2  5.10063e-05
22  8.2  2.26786e-05
22  7.7  3.51611e-05
22  8.7  1.59464e-05
22  9.2  1.07201e-05
22  10.2  5.59798e-06
22  9.7  7.73195e-06
22  10.7  3.98482e-06
22  11.7  2.02529e-06
22  11.2  2.85845e-06
24  0.2  0.667769
24  0.7  0.540836
24  1.2  0.202526
24  1.7  0.0674507
24  2.2  0.0245251
24  2.7  0.00969317
24  3.2  0.0044512
24  3.7  0.00211066
24  4.2  0.00109624
24  4.7  0.000593638
24  5.7  0.000197375
24  5.2  0.000335224
24  6.2  0.000119488
24  6.7  7.50716e-05
24  7.7  3.23227e-05
24  7.2  4.85902e-05
24  8.2  2.14732e-05
24  8.7  1.4677e-05
24  9.7  7.17738e-06
24  9.2  1.01653e-05
24  10.2  5.0062e-06
24  10.7  3.59824e-06
24  11.2  2.6675e-06
26  0.2  0.629236
24  11.7  1.8952e-06
26  0.7  0.497677
26  1.2  0.176971
26  1.7  0.0594312
26  2.2  0.021703
26  2.7  0.00855091
26  3.2  0.00384843
26  3.7  0.0018661
26  4.2  0.000955117
26  4.7  0.000519641
26  5.2  0.000290179
26  5.7  0.000173655
26  6.2  0.000106211
26  6.7  6.63908e-05
26  7.7  2.75068e-05
26  7.2  4.27809e-05
26  8.2  1.88706e-05
26  8.7  1.30049e-05
26  9.2  8.86988e-06
26  9.7  6.19605e-06
26  10.2  4.4008e-06
26  10.7  3.14667e-06
26  11.2  2.26962e-06
28  0.7  0.440937
26  11.7  1.66951e-06
28  0.2  0.579384
28  2.2  0.0188848
28  1.7  0.0503379
28  1.2  0.154573
28  2.7  0.00743348
28  3.2  0.00331298
28  3.7  0.00155962
28  4.7  0.000428136
28  4.2  0.000790787
28  5.7  0.000145544
28  5.2  0.000247872
28  6.2  8.77589e-05
28  6.7  5.56918e-05
28  7.2  3.58556e-05
28  7.7  2.34025e-05
28  8.2  1.5618e-05
28  9.2  7.46785e-06
28  8.7  1.0761e-05
28  9.7  5.24474e-06
28  10.7  2.61821e-06
28  10.2  3.65846e-06
28  11.2  1.9078e-06
28  11.7  1.38514e-06
30  0.2  0.522385
30  0.7  0.359263
30  1.2  0.126198
30  2.2  0.0144269
30  1.7  0.0402317
30  3.2  0.0025269
30  2.7  0.00585764
30  3.7  0.00121222
30  4.2  0.000617072
30  4.7  0.000341555
30  5.2  0.000193441
30  5.7  0.000114879
30  6.2  6.92529e-05
30  6.7  4.39532e-05
30  7.2  2.80358e-05
30  7.7  1.82817e-05
30  8.2  1.233e-05
30  8.7  8.38759e-06
30  9.2  5.73597e-06
30  9.7  4.12872e-06
30  10.2  2.88544e-06
30  10.7  2.08174e-06
30  11.2  1.48614e-06
32  0.2  0.439619
30  11.7  1.09196e-06
32  0.7  0.277402
32  1.2  0.0906473
32  1.7  0.0288172
32  2.2  0.0101946
32  2.7  0.00416143
32  3.2  0.00184467
32  3.7  0.000847572
32  4.2  0.000439273
32  4.7  0.000237855
32  5.7  7.86111e-05
32  5.2  0.000138311
32  6.2  5.00758e-05
32  6.7  2.90954e-05
32  7.2  2.02119e-05
32  8.2  9.04012e-06
32  7.7  1.32397e-05
32  8.7  5.83587e-06
32  9.2  4.09091e-06
32  9.7  2.88715e-06
32  10.2  2.05131e-06
32  10.7  1.46088e-06
32  11.2  1.09723e-06
32  11.7  7.82054e-07
4  0.2  0.75966
4  0.7  0.69035
4  1.7  0.0983183
4  1.2  0.277853
4  2.2  0.0366448
4  3.2  0.00650874
4  2.7  0.0147501
4  4.2  0.00158698
4  3.7  0.00314023
4  4.7  0.000881482
4  5.2  0.000502673
4  5.7  0.00029536
4  6.2  0.000179317
4  6.7  0.000109058
4  7.2  7.32381e-05
4  7.7  4.73249e-05
4  8.2  3.19347e-05
4  9.2  1.46494e-05
4  8.7  2.16374e-05
4  9.7  1.04938e-05
4  10.2  7.55299e-06
4  10.7  5.39074e-06
4  11.2  3.92622e-06
6  0.2  0.759312
4  11.7  2.8472e-06
6  1.2  0.279987
6  0.7  0.686138
6  1.7  0.096764
6  2.2  0.0361123
6  2.7  0.0145943
6  3.2  0.00641468
6  3.7  0.00303492
6  4.2  0.00156745
6  4.7  0.000865576
6  5.7  0.000294337
6  5.2  0.000507048
6  6.2  0.000176023
6  6.7  0.000111907
6  7.2  6.97751e-05
6  7.7  4.72895e-05
6  8.2  3.1844e-05
6  8.7  2.11594e-05
6  9.2  1.44434e-05
6  10.2  7.34992e-06
6  9.7  1.05001e-05
6  10.7  5.48441e-06
6  11.2  3.87262e-06
6  11.7  2.8815e-06
8  0.2  0.756682
8  0.7  0.679159
8  1.7  0.0956296
8  1.2  0.276123
8  2.2  0.0349073
8  2.7  0.0143868
8  3.2  0.00640205
8  3.7  0.0030367
8  4.2  0.0015696
8  4.7  0.000865304
8  5.2  0.000484024
8  5.7  0.000290436
8  6.7  0.000109895
8  6.2  0.000175587
8  7.2  7.05896e-05
8  7.7  4.68071e-05
8  8.2  3.13178e-05
8  8.7  2.14054e-05
8  9.7  1.01564e-05
8  9.2  1.47787e-05
8  10.2  7.35783e-06
8  10.7  5.48271e-06
8  11.2  3.79389e-06
8  11.7  2.82232e-06
