# diffractive D0 cross section, Pb target, BCFY fragmentation, An0n channel
# dipole samples : data/Pb/mve/glauber_mve_<b>
# pD0 sweep      : 0.2 to 12.0 GeV, step 0.5
# fixed rapidity y : 4.0
# ============================================================
# b  pD0  dsigma_dyd2pD0
0  1.7  0.000792355
0  0.7  0.0112212
0  0.2  0.00728184
0  1.2  0.0036486
0  2.2  0.000156207
0  3.7  1.62175e-06
0  3.2  7.02401e-06
0  2.7  3.22593e-05
0  4.2  3.96845e-07
0  5.2  2.73844e-08
0  4.7  1.04702e-07
0  6.2  2.32655e-09
0  5.7  7.91534e-09
0  7.7  6.70194e-11
0  7.2  2.06263e-10
0  6.7  6.96005e-10
0  9.2  2.40943e-12
0  8.7  6.85551e-12
0  8.2  2.23588e-11
0  9.7  8.17555e-13
0  11.7  1.27437e-14
0  10.7  9.88534e-14
0  10.2  2.78726e-13
0  11.2  3.321e-14
10  0.2  0.00716888
10  0.7  0.0109633
10  1.2  0.00357256
10  1.7  0.000757575
10  2.2  0.000150883
10  2.7  3.01151e-05
10  3.2  6.71885e-06
10  3.7  1.54191e-06
10  4.7  9.80341e-08
10  5.2  2.57058e-08
10  4.2  3.88751e-07
10  5.7  7.50467e-09
10  6.2  2.19764e-09
10  8.2  2.09177e-11
10  6.7  6.64954e-10
10  7.2  2.07408e-10
10  7.7  6.48177e-11
10  8.7  6.89672e-12
10  9.2  2.17663e-12
10  10.2  2.679e-13
10  9.7  7.56914e-13
10  10.7  9.39332e-14
10  11.7  1.1865e-14
10  11.2  3.33926e-14
12  0.2  0.0071566
12  0.7  0.0108856
12  1.2  0.00350719
12  1.7  0.000738058
12  2.2  0.000148331
12  2.7  3.03654e-05
12  3.2  6.5538e-06
12  3.7  1.54206e-06
12  5.2  2.54824e-08
12  4.7  9.66978e-08
12  4.2  3.73513e-07
12  6.2  2.16006e-09
12  5.7  7.44256e-09
12  7.2  1.93386e-10
12  6.7  6.55636e-10
12  8.2  1.97179e-11
12  7.7  6.41078e-11
12  8.7  6.35924e-12
12  10.2  2.48938e-13
12  9.2  2.26493e-12
12  9.7  7.27184e-13
12  10.7  9.20026e-14
14  0.2  0.00722605
12  11.7  1.09482e-14
14  0.7  0.010708
12  11.2  3.23305e-14
14  2.2  0.000142699
14  1.7  0.000724464
14  1.2  0.00344111
14  2.7  2.94097e-05
14  4.2  3.60896e-07
14  3.2  6.41076e-06
14  3.7  1.47998e-06
14  4.7  9.28293e-08
14  5.2  2.47825e-08
14  5.7  7.14481e-09
14  6.2  2.09748e-09
14  7.2  1.93616e-10
14  6.7  6.289e-10
14  8.7  6.50018e-12
14  7.7  5.89472e-11
14  8.2  1.99852e-11
14  9.2  2.18683e-12
14  10.7  8.61585e-14
14  9.7  7.38427e-13
14  11.2  3.01125e-14
14  10.2  2.53868e-13
16  0.2  0.00703012
14  11.7  1.11929e-14
16  0.7  0.0105638
16  1.2  0.00330044
16  2.2  0.000139924
16  1.7  0.000699195
16  2.7  2.85075e-05
16  3.2  6.14096e-06
16  4.2  3.41813e-07
16  3.7  1.42885e-06
16  4.7  9.0346e-08
16  5.7  6.58234e-09
16  5.2  2.42231e-08
16  6.7  6.19206e-10
16  7.2  1.82184e-10
16  6.2  2.03813e-09
16  7.7  5.53065e-11
16  8.2  1.9127e-11
16  8.7  5.9951e-12
16  9.2  2.11942e-12
16  10.2  2.44627e-13
16  9.7  7.21586e-13
16  10.7  8.38734e-14
16  11.2  2.96993e-14
18  0.2  0.00701867
18  0.7  0.0103277
16  11.7  1.0748e-14
18  1.2  0.00330442
18  1.7  0.00068229
18  2.2  0.000129793
18  3.2  5.89779e-06
18  2.7  2.7162e-05
18  3.7  1.38756e-06
18  4.7  8.53442e-08
18  4.2  3.3102e-07
18  5.2  2.31693e-08
18  5.7  6.47662e-09
18  6.7  5.97029e-10
18  6.2  1.93997e-09
18  7.7  5.75517e-11
18  7.2  1.84045e-10
18  8.7  5.85666e-12
18  9.7  6.69728e-13
18  8.2  1.83174e-11
18  9.2  2.00031e-12
18  10.2  2.36687e-13
2  0.2  0.00723906
18  10.7  8.22241e-14
18  11.2  2.88797e-14
2  0.7  0.0112193
18  11.7  1.04251e-14
2  1.2  0.00373653
2  1.7  0.000782965
2  2.7  3.15172e-05
2  2.2  0.000157747
2  3.7  1.61171e-06
2  3.2  7.1099e-06
2  4.2  4.07374e-07
2  4.7  1.02936e-07
2  5.2  2.85123e-08
2  6.2  2.25128e-09
2  5.7  7.89919e-09
2  7.2  2.16258e-10
2  6.7  6.91842e-10
2  8.2  2.09087e-11
2  7.7  6.90682e-11
2  9.2  2.35704e-12
2  8.7  7.24342e-12
2  10.2  2.72706e-13
2  9.7  7.77832e-13
2  11.2  3.21884e-14
2  10.7  9.79077e-14
20  0.2  0.00691957
20  0.7  0.010002
2  11.7  1.24005e-14
20  1.2  0.00310816
20  1.7  0.000652055
20  2.2  0.000123959
20  2.7  2.5956e-05
20  3.2  5.48837e-06
20  4.2  3.12478e-07
20  3.7  1.29517e-06
20  5.7  6.16728e-09
20  6.2  1.78365e-09
20  4.7  8.21759e-08
20  5.2  2.2215e-08
20  7.2  1.61436e-10
20  6.7  5.47765e-10
20  7.7  5.35724e-11
20  8.2  1.74424e-11
20  9.2  1.84492e-12
20  8.7  5.70004e-12
20  9.7  6.44476e-13
20  10.2  2.19926e-13
20  10.7  7.6494e-14
20  11.7  9.9343e-15
20  11.2  2.73727e-14
22  0.2  0.00683141
22  1.2  0.00294849
22  0.7  0.00979766
22  1.7  0.000594513
22  2.2  0.000117095
22  2.7  2.37679e-05
22  4.2  2.86361e-07
22  3.7  1.2033e-06
22  3.2  5.14297e-06
22  4.7  7.56709e-08
22  6.2  1.64561e-09
22  5.7  5.65912e-09
22  5.2  2.07739e-08
22  6.7  4.97347e-10
22  7.2  1.5271e-10
22  7.7  4.99886e-11
22  9.2  1.71588e-12
22  8.7  4.96671e-12
22  8.2  1.53473e-11
22  9.7  5.93676e-13
22  10.2  2.07127e-13
24  0.2  0.00669116
22  10.7  7.22166e-14
22  11.2  2.47897e-14
22  11.7  9.13001e-15
24  0.7  0.00929008
24  1.2  0.00271424
24  2.2  0.000106508
24  1.7  0.000546466
24  3.2  4.79412e-06
24  2.7  2.15515e-05
24  3.7  1.09032e-06
24  4.2  2.59766e-07
24  4.7  6.68892e-08
24  5.2  1.87677e-08
24  5.7  5.23609e-09
24  6.2  1.55579e-09
24  6.7  4.65672e-10
24  7.2  1.43084e-10
24  7.7  4.28039e-11
24  8.7  4.75497e-12
24  8.2  1.46285e-11
24  9.7  5.25639e-13
24  9.2  1.51034e-12
24  10.7  6.6898e-14
24  10.2  1.85433e-13
26  0.2  0.00651281
26  0.7  0.00859895
24  11.2  2.32901e-14
24  11.7  8.3028e-15
26  1.2  0.00250696
26  2.2  9.35699e-05
26  1.7  0.000491799
26  3.2  4.14498e-06
26  2.7  1.91218e-05
26  3.7  9.67155e-07
26  4.2  2.29755e-07
26  4.7  6.17816e-08
26  5.2  1.65843e-08
26  5.7  4.71379e-09
26  6.2  1.31769e-09
26  7.7  3.85933e-11
26  6.7  3.89525e-10
26  7.2  1.20357e-10
26  9.2  1.37311e-12
26  9.7  4.60477e-13
26  8.7  4.04094e-12
26  8.2  1.2171e-11
26  10.2  1.64144e-13
26  11.2  1.98307e-14
26  10.7  5.57895e-14
28  0.2  0.00626801
26  11.7  7.11995e-15
28  1.2  0.00220996
28  0.7  0.00794239
28  1.7  0.000417998
28  2.2  7.92921e-05
28  3.2  3.57221e-06
28  3.7  7.89309e-07
28  2.7  1.60121e-05
28  4.2  1.99447e-07
28  5.2  1.40163e-08
28  4.7  5.25413e-08
28  5.7  3.92035e-09
28  6.2  1.125e-09
28  7.7  3.20962e-11
28  6.7  3.19362e-10
28  7.2  9.842e-11
28  8.2  1.06516e-11
28  9.2  1.13605e-12
28  8.7  3.48359e-12
28  9.7  4.03607e-13
28  10.2  1.38212e-13
30  0.2  0.00585826
28  10.7  4.78461e-14
28  11.7  6.08551e-15
28  11.2  1.69717e-14
30  0.7  0.00673935
30  2.2  6.36026e-05
30  1.2  0.00172556
30  1.7  0.000329941
30  2.7  1.23779e-05
30  3.2  2.80549e-06
30  3.7  6.13345e-07
30  4.2  1.46575e-07
30  4.7  3.98126e-08
30  5.7  2.94562e-09
30  5.2  1.08494e-08
30  6.7  2.62207e-10
30  6.2  8.88194e-10
30  7.2  8.34907e-11
30  7.7  2.56758e-11
30  8.7  2.71423e-12
30  9.2  8.8865e-13
30  8.2  8.46167e-12
30  10.2  1.07116e-13
30  9.7  3.15493e-13
30  10.7  3.63169e-14
32  0.2  0.00536148
32  1.2  0.00129364
30  11.2  1.32586e-14
30  11.7  4.72571e-15
32  0.7  0.00521047
32  2.2  4.33285e-05
32  1.7  0.000233648
32  2.7  9.02805e-06
32  3.2  2.02045e-06
32  4.2  1.07957e-07
32  3.7  4.5062e-07
32  4.7  2.83441e-08
32  5.2  7.57581e-09
32  6.2  6.22696e-10
32  5.7  2.16603e-09
32  6.7  1.84963e-10
32  7.2  5.68127e-11
32  8.7  1.92592e-12
32  8.2  5.83001e-12
32  7.7  1.76368e-11
32  9.2  6.38377e-13
32  10.7  2.64707e-14
32  9.7  2.19071e-13
32  10.2  7.60708e-14
32  11.7  3.2732e-15
4  0.2  0.0072232
32  11.2  9.18901e-15
4  1.7  0.00079621
4  0.7  0.0111995
4  1.2  0.00368796
4  2.7  3.25221e-05
4  2.2  0.000154863
4  3.2  7.02143e-06
4  4.2  4.00747e-07
4  3.7  1.62086e-06
4  4.7  1.00592e-07
4  5.2  2.78587e-08
4  7.2  2.08822e-10
4  6.7  6.92856e-10
4  5.7  8.00526e-09
4  6.2  2.29329e-09
4  8.2  2.21735e-11
4  7.7  6.81705e-11
4  9.2  2.39396e-12
4  8.7  7.20501e-12
4  10.2  2.76794e-13
4  9.7  8.14813e-13
4  10.7  9.92256e-14
4  11.7  1.25678e-14
6  0.2  0.0072878
4  11.2  3.41876e-14
6  0.7  0.0111546
6  1.7  0.000790262
6  1.2  0.00357371
6  2.2  0.000154291
6  2.7  3.18059e-05
6  3.2  7.04914e-06
6  3.7  1.56271e-06
6  4.2  3.88869e-07
6  4.7  1.00757e-07
6  6.2  2.33045e-09
6  5.2  2.8061e-08
6  5.7  7.76368e-09
6  7.2  2.02932e-10
6  6.7  6.97448e-10
6  7.7  6.70627e-11
6  8.7  7.0605e-12
6  9.2  2.35755e-12
6  8.2  2.19353e-11
6  10.2  2.76752e-13
6  9.7  8.16684e-13
6  10.7  9.69052e-14
6  11.2  3.40142e-14
8  0.2  0.00719683
8  1.2  0.00361818
6  11.7  1.22086e-14
8  0.7  0.0110617
8  1.7  0.000766242
8  2.2  0.000150029
8  2.7  3.13434e-05
8  3.2  6.83697e-06
8  3.7  1.58836e-06
8  4.2  3.79174e-07
8  4.7  1.00869e-07
8  5.2  2.69057e-08
8  5.7  7.39241e-09
8  6.2  2.24588e-09
8  6.7  6.81935e-10
8  7.2  2.11138e-10
8  7.7  6.32506e-11
8  8.2  2.00967e-11
8  9.2  2.34589e-12
8  8.7  7.03469e-12
8  9.7  7.66514e-13
8  10.2  2.78001e-13
8  11.2  3.3523e-14
8  10.7  9.61753e-14
8  11.7  1.18203e-14
